timestamp,package_number,gesture_name,gesture_number,s1,s2,s3,s4,s5,s6,s7,s8
1449106764896,3,0,0,-8,0,59,26,-5,-7,-6,-6
1449106764896,1,0,0,-12,-21,-6,9,2,-6,-4,-4
1449106764896,1,0,0,-4,7,-3,-10,-3,1,-2,-4
1449106764896,3,0,0,3,9,2,-1,2,0,0,3
1449106764897,2,0,0,-2,0,9,12,1,-5,-6,-4
1449106764897,2,0,0,5,5,-12,-19,-12,-2,3,7
1449106764943,3,0,0,5,13,13,-8,-7,0,2,3
1449106764943,3,0,0,-10,-23,-21,-16,3,3,-2,-3
1449106764944,0,0,0,1,0,-4,-27,-8,0,3,1
1449106764944,0,0,0,-4,-15,-2,37,21,1,-1,-3
1449106764945,2,0,0,2,-1,15,10,-4,-1,1,0
1449106764945,2,0,0,-3,-6,7,-1,-3,-3,-1,-3
1449106764946,3,0,0,-1,-6,-22,-28,-7,-5,-2,0
1449106764946,3,0,0,7,12,2,-2,5,4,3,3
1449106764992,0,0,0,-3,3,4,9,0,-2,-3,-4
1449106764992,0,0,0,-1,13,9,-1,-4,-3,-3,-3
1449106764993,3,0,0,-4,-5,9,0,-3,-5,-4,-3
1449106764993,1,0,0,-1,-8,8,14,8,-1,-1,2
1449106764993,3,0,0,4,13,-7,-8,-4,-4,0,0
1449106764993,1,0,0,-4,-9,-13,-14,-3,3,1,-1
1449106764997,0,0,0,-4,-20,-21,-7,-1,2,-1,0
1449106764997,0,0,0,-2,-4,3,2,-1,-1,0,1
1449106765041,1,0,0,1,3,2,4,1,0,-1,1
1449106765041,1,0,0,2,9,5,5,2,2,0,2
1449106765042,2,0,0,-1,-2,-3,-11,-5,0,-1,-2
1449106765042,0,0,0,1,2,-6,-5,-2,-1,2,7
1449106765042,0,0,0,-4,6,3,2,4,-1,-1,-4
1449106765042,2,0,0,0,3,2,-9,-3,-3,-2,-1
1449106765043,1,0,0,-1,4,4,2,1,1,6,0
1449106765043,1,0,0,3,10,0,9,6,3,1,1
1449106765139,2,0,0,-6,-11,-2,-5,-1,-3,-5,-5
1449106765139,2,0,0,-4,0,-7,-9,-2,0,-4,-3
1449106765141,1,0,0,-3,4,-6,-2,-1,-2,1,0
1449106765141,3,0,0,2,-3,-3,-3,1,4,5,-2
1449106765141,3,0,0,-2,-5,-2,0,-8,-6,-2,0
1449106765141,1,0,0,-2,-4,-4,-3,-5,-5,-5,-3
1449106765142,2,0,0,2,3,-6,3,5,-2,-3,1
1449106765142,2,0,0,2,8,3,-7,-2,0,0,1
1449106765187,3,0,0,3,2,-6,-3,10,6,4,0
1449106765187,3,0,0,-1,1,5,-2,-4,-4,-3,-1
1449106765188,0,0,0,-3,-3,-2,4,5,4,4,-2
1449106765188,0,0,0,3,5,-3,1,-4,-4,1,3
1449106765195,2,0,0,-1,-6,4,-7,-8,0,1,-2
1449106765195,2,0,0,-2,-9,-1,-2,0,-3,-1,2
1449106765198,2,0,0,2,1,-10,-5,2,3,2,-10
1449106765198,2,0,0,-8,-13,-2,-7,-2,0,-4,-4
1449106765236,3,0,0,2,6,12,3,-3,-4,-1,1
1449106765236,3,0,0,-4,-1,-5,1,1,0,-5,-6
1449106765237,3,0,0,-2,4,29,7,1,1,4,0
1449106765237,0,0,0,-7,-11,-9,-2,-3,-4,-4,-10
1449106765237,0,0,0,11,-2,2,-3,-8,-3,-1,4
1449106765237,3,0,0,1,4,-15,-4,-8,-4,-1,0
1449106765238,0,0,0,0,3,19,12,6,2,-3,-3
1449106765238,0,0,0,8,11,32,14,2,0,8,14
1449106765285,2,0,0,-15,-9,9,-5,-6,-5,-7,-10
1449106765285,1,0,0,-2,-13,-76,-23,0,-3,-1,-1
1449106765285,1,0,0,7,1,-23,-16,-5,1,-12,-18
1449106765285,2,0,0,6,27,29,4,-1,-2,-5,6
1449106765286,0,0,0,-11,-5,0,-4,0,-5,-3,1
1449106765286,0,0,0,-17,-8,13,2,-4,-4,-8,-13
1449106765287,1,0,0,23,10,-3,-4,-6,-5,1,-3
1449106765287,1,0,0,-33,-28,-80,-10,2,3,25,21
1449106765334,2,0,0,6,8,79,1,-12,-1,-19,-54
1449106765334,3,0,0,28,12,29,5,3,22,86,65
1449106765334,3,0,0,0,18,49,14,4,7,17,24
1449106765334,2,0,0,-23,-27,-33,-10,-4,-14,-22,8
1449106765335,1,0,0,-8,-3,34,1,-12,-26,-42,-24
1449106765335,1,0,0,-3,12,19,-8,0,13,24,5
1449106765336,2,0,0,5,-2,-9,-11,-12,-6,-16,-20
1449106765336,2,0,0,29,-2,-15,-3,12,51,125,113
1449106765382,3,0,0,-7,-4,-22,0,5,-15,-49,-33
1449106765382,3,0,0,-16,-30,-13,-11,-11,-27,-55,-39
1449106765383,2,0,0,14,1,-20,29,18,7,26,24
1449106765383,0,0,0,-1,0,8,10,5,9,8,-4
1449106765383,2,0,0,7,8,-10,-18,-4,13,55,35
1449106765383,0,0,0,-2,5,-8,5,-2,-5,-13,-9
1449106765385,3,0,0,-24,-15,-10,-5,-6,-32,-71,-42
1449106765385,3,0,0,2,5,0,0,1,-16,-44,-17
1449106765431,0,0,0,-6,-6,-10,5,4,0,5,8
1449106765431,0,0,0,14,14,19,-7,-6,25,69,46
1449106765431,1,0,0,-6,9,6,-14,-17,9,-40,-32
1449106765431,1,0,0,19,9,-10,-8,5,38,90,48
1449106765432,3,0,0,3,3,20,20,17,11,0,11
1449106765432,3,0,0,-20,-27,-13,-16,-21,-40,-56,-29
1449106765433,0,0,0,13,22,7,30,11,11,20,13
1449106765433,0,0,0,8,7,42,-9,-3,11,25,8
1449106765480,2,0,0,11,23,23,11,11,-11,-7,-9
1449106765480,2,0,0,-8,-19,-9,-15,-6,-7,-25,-9
1449106765480,1,0,0,-6,-14,-74,-54,-40,-11,18,0
1449106765480,1,0,0,0,3,28,27,19,15,29,15
1449106765481,0,0,0,2,1,-2,-7,6,-25,-11,-3
1449106765481,0,0,0,11,17,13,17,4,11,4,2
1449106765482,1,0,0,9,12,32,20,0,-17,-12,1
1449106765482,1,0,0,-2,10,-7,-4,-6,-2,-22,-12
1449106765528,2,0,0,10,2,22,19,26,57,51,35
1449106765528,2,0,0,-13,-28,-49,-25,-15,8,24,4
1449106765529,3,0,0,-9,-6,8,-2,0,-15,-59,-32
1449106765529,3,0,0,-1,-6,-4,-5,1,1,19,2
1449106765530,0,0,0,12,2,-1,-12,2,17,-11,3
1449106765530,0,0,0,-11,-9,-11,3,-11,-47,-24,-13
1449106765531,1,0,0,-2,-16,-4,7,6,-17,-13,2
1449106765531,1,0,0,18,26,25,17,5,8,7,10
1449106765577,2,0,0,-10,-20,-5,-25,-4,10,16,4
1449106765577,2,0,0,16,26,-5,-6,6,13,16,13
1449106765578,1,0,0,6,20,-8,9,15,25,19,7
1449106765578,3,0,0,7,21,7,29,12,1,8,5
1449106765578,1,0,0,-1,-2,20,-24,-15,-9,-4,-1
1449106765578,3,0,0,-23,-44,-40,1,-8,-9,-16,-19
1449106765580,2,0,0,3,5,-3,24,9,-6,-4,1
1449106765580,2,0,0,-12,3,-9,-12,-4,-5,-7,-5
1449106765626,3,0,0,14,26,26,2,2,1,18,-6
1449106765626,3,0,0,-6,-24,-14,0,-2,3,-11,-8
1449106765627,0,0,0,-10,-3,-1,-8,-13,21,18,-5
1449106765627,2,0,0,7,6,16,12,5,8,19,4
1449106765627,0,0,0,20,-5,15,15,13,17,9,19
1449106765627,2,0,0,-7,9,-3,9,14,7,-21,-10
1449106765628,3,0,0,-3,-7,0,-24,-23,-11,-11,-6
1449106765628,3,0,0,1,30,-1,16,9,3,16,9
1449106765675,0,0,0,-5,12,-5,-10,-11,-6,12,-3
1449106765675,1,0,0,-5,-34,-2,-12,2,-8,-13,-7
1449106765675,0,0,0,-8,-9,16,8,1,-14,-45,-26
1449106765675,1,0,0,15,9,23,16,12,15,-10,7
1449106765676,3,0,0,11,27,27,4,-1,8,16,11
1449106765676,3,0,0,-18,-17,-39,-22,-18,-13,-21,-12
1449106765677,0,0,0,4,-6,-4,7,9,0,-5,-2
1449106765677,0,0,0,8,-30,12,-3,-3,0,19,9
1449106765723,1,0,0,-4,0,-14,0,6,18,28,12
1449106765723,1,0,0,5,-18,10,5,3,-10,-21,-12
1449106765724,2,0,0,-4,9,-11,-7,-7,2,18,10
1449106765724,2,0,0,0,-16,8,-8,-7,-12,-10,-11
1449106765725,0,0,0,-21,-12,-30,-46,-21,-35,-59,-27
1449106765725,0,0,0,15,-17,40,54,19,8,16,12
1449106765726,1,0,0,-9,6,22,-19,-8,8,35,11
1449106765726,1,0,0,-21,0,-41,6,-10,-4,10,-5
1449106765772,2,0,0,7,2,24,4,6,1,-9,-7
1449106765772,2,0,0,-9,26,-34,-17,-7,-3,3,2
1449106765773,1,0,0,4,-17,6,5,-2,1,7,2
1449106765773,3,0,0,1,-22,1,15,6,8,15,3
1449106765773,3,0,0,6,-18,28,-9,1,5,1,4
1449106765773,1,0,0,-1,24,-8,-16,-7,-5,-1,-4
1449106765775,2,0,0,-5,0,-10,13,2,-5,5,4
1449106765775,2,0,0,7,-6,0,-19,-2,7,33,25
1449106765870,3,0,0,2,-8,1,8,9,-6,-45,-24
1449106765870,3,0,0,-3,-20,-1,3,-4,-18,-31,-7
1449106765870,0,0,0,-3,-7,-20,-27,8,1,6,1
1449106765870,0,0,0,1,1,7,4,-12,-1,-11,-5
1449106765871,2,0,0,-4,1,-6,-20,-6,4,-5,-4
1449106765871,2,0,0,0,-42,7,5,-1,-4,-27,-15
1449106765872,3,0,0,7,11,1,-37,-13,6,15,8
1449106765872,3,0,0,-9,5,6,23,18,3,-14,-14
1449106765918,0,0,0,-4,4,-4,-3,-12,-22,-2,0
1449106765918,0,0,0,-1,-11,-8,6,-4,5,-16,-7
1449106765919,1,0,0,14,19,23,10,5,5,-12,1
1449106765919,1,0,0,-8,3,-13,-20,-7,4,5,-3
1449106765920,3,0,0,3,9,53,1,-5,-7,5,0
1449106765920,3,0,0,0,5,4,4,5,5,5,6
1449106765921,3,0,0,-24,-20,-13,-13,-5,-27,-26,-56
1449106765921,3,0,0,-18,19,-21,-13,-15,-13,-20,-22
1449106765967,0,0,0,10,-23,24,-2,-2,-6,-7,-2
1449106765967,0,0,0,22,-32,-5,25,15,13,7,54
1449106765968,0,0,0,-2,18,64,4,-1,11,1,-15
1449106765968,1,0,0,-42,28,-108,-24,-3,0,0,-67
1449106765968,0,0,0,-22,-6,-8,2,-1,-7,-2,-36
1449106765968,1,0,0,-11,-23,40,15,5,3,-1,-15
1449106765970,1,0,0,25,5,-10,33,10,15,17,35
1449106765970,1,0,0,5,-27,12,1,1,-2,5,14
1449106766016,2,0,0,16,21,-8,20,11,8,-2,-10
1449106766016,2,0,0,-8,19,6,-18,-6,2,-2,-8
1449106766017,1,0,0,8,-8,-77,-9,7,8,9,8
1449106766017,3,0,0,-15,-25,-62,-21,-8,-7,-13,-24
1449106766017,1,0,0,-2,25,56,-17,-8,-3,-1,17
1449106766017,3,0,0,15,-1,82,19,0,-4,-2,19
1449106766018,2,0,0,5,-2,-32,9,4,12,5,-12
1449106766018,2,0,0,-9,15,50,-10,-12,-12,-6,-5
1449106766065,0,0,0,-13,7,-35,-6,5,-3,-12,-23
1449106766065,3,0,0,-9,25,-15,-4,-5,-7,-5,-9
1449106766065,0,0,0,18,20,19,19,7,5,9,22
1449106766065,3,0,0,12,-11,57,18,-2,-3,7,27
1449106766066,2,0,0,-11,8,-23,-19,-6,1,-2,-10
1449106766066,2,0,0,7,-3,61,7,1,-3,1,2
1449106766067,3,0,0,9,-24,26,21,7,1,3,17
1449106766067,3,0,0,-5,-13,-50,-13,-5,-2,-4,-8
1449106766113,0,0,0,-3,-3,-74,-9,4,2,-1,-7
1449106766113,0,0,0,2,0,78,3,-7,-8,-7,-5
1449106766114,1,0,0,3,-38,-61,-10,-3,1,0,4
1449106766114,1,0,0,12,35,8,8,3,5,5,9
1449106766115,3,0,0,-13,-4,0,-3,11,32,14,-1
1449106766115,3,0,0,5,6,39,13,3,3,5,8
1449106766116,0,0,0,-2,-14,-25,-8,-3,0,-4,-7
1449106766116,0,0,0,-4,1,-34,-18,0,-1,-14,-13
1449106766163,1,0,0,-3,-12,-14,-11,-27,-19,2,9
1449106766163,2,0,0,-5,-10,-58,-4,9,5,4,-4
1449106766163,2,0,0,-5,-23,-24,0,-5,-8,-11,-11
1449106766163,1,0,0,13,-1,113,29,15,8,9,12
1449106766164,0,0,0,-11,59,53,-6,-17,-14,-14,-12
1449106766164,0,0,0,-13,-29,-15,4,10,6,5,-3
1449106766165,1,0,0,15,9,29,0,6,6,5,8
1449106766165,1,0,0,2,-14,-3,11,8,-2,-5,8
1449106766211,2,0,0,-4,-23,-40,5,7,6,-5,-27
1449106766211,2,0,0,-5,-19,-23,-11,-12,-12,-33,-41
1449106766212,1,0,0,-8,1,-33,-35,-16,-11,-28,-18
1449106766212,3,0,0,9,10,-24,-10,3,0,30,35
1449106766212,3,0,0,16,59,127,0,-14,3,-9,30
1449106766212,1,0,0,-5,-29,30,21,6,-2,-6,-18
1449106766213,2,0,0,17,7,54,26,-5,-4,0,17
1449106766213,2,0,0,-5,4,-83,-42,17,17,17,1
1449106766260,0,0,0,-22,-39,4,3,1,-3,-4,-6
1449106766260,0,0,0,-6,25,104,42,-1,-6,-4,-4
1449106766260,3,0,0,-4,35,88,-30,-28,-20,-13,-12
1449106766260,3,0,0,8,-7,-66,42,7,12,9,7
1449106766261,1,0,0,-2,16,7,-45,-22,-14,-16,-15
1449106766261,1,0,0,-8,-56,-97,-11,8,-6,-3,3
1449106766262,2,0,0,4,27,52,-11,-15,-6,-4,-4
1449106766262,2,0,0,-3,-23,-41,-12,-11,-6,-7,-3
1449106766308,3,0,0,-1,4,27,2,1,0,-1,-8
1449106766308,3,0,0,9,22,-46,-19,6,13,22,19
1449106766309,0,0,0,-10,4,-16,-1,-3,-6,-12,-7
1449106766309,0,0,0,1,-18,-13,-6,-2,-6,-9,-2
1449106766310,2,0,0,3,-10,-67,-6,5,16,16,14
1449106766310,2,0,0,6,5,42,-6,-4,-4,-6,4
1449106766311,3,0,0,3,-1,58,17,-5,0,5,3
1449106766311,3,0,0,-6,29,47,0,-4,-11,-12,-13
1449106766357,0,0,0,3,-12,-1,15,10,7,4,7
1449106766357,0,0,0,7,-39,-85,0,1,-3,1,2
1449106766358,3,0,0,-1,-3,63,0,-3,-5,-6,-5
1449106766358,3,0,0,-1,-25,-107,-46,-7,1,4,5
1449106766358,1,0,0,-7,-29,13,-3,5,-7,-9,-8
1449106766358,1,0,0,-21,32,73,20,-14,-16,-13,-13
1449106766360,0,0,0,8,8,-4,-10,2,9,18,13
1449106766360,0,0,0,-9,-7,17,-1,-11,-14,-16,-14
1449106766406,1,0,0,-2,-20,7,14,7,-3,-10,-8
1449106766406,2,0,0,6,-33,-66,-27,-1,-1,6,7
1449106766406,2,0,0,4,40,67,12,4,11,13,6
1449106766406,1,0,0,2,37,5,8,-6,-5,-4,-8
1449106766407,0,0,0,21,-42,-92,-4,8,6,5,11
1449106766407,0,0,0,-12,3,58,18,-9,-9,-7,-9
1449106766408,1,0,0,-16,17,39,-29,-8,0,-1,-4
1449106766408,1,0,0,-25,42,63,28,-8,-15,-15,-20
1449106766455,3,0,0,-7,-38,-81,-27,-12,-9,-5,-1
1449106766455,2,0,0,1,7,13,31,-1,1,5,3
1449106766455,3,0,0,4,-57,-44,3,13,10,13,10
1449106766455,2,0,0,-1,-9,19,-19,-12,-10,-11,-4
1449106766456,1,0,0,7,-12,-8,9,-3,0,14,22
1449106766456,1,0,0,16,14,-3,7,8,9,6,0
1449106766457,2,0,0,1,0,-74,-28,-4,3,11,5
1449106766457,2,0,0,-11,-28,-27,-28,-4,7,-4,-4
1449106766503,3,0,0,-5,0,12,18,15,12,2,-13
1449106766503,3,0,0,-2,13,76,16,-5,-15,-15,-8
1449106766504,0,0,0,-4,2,-18,-13,-3,-2,-4,-1
1449106766504,0,0,0,2,-15,-31,-3,1,3,4,4
1449106766505,2,0,0,-15,5,-45,29,6,3,0,-14
1449106766505,2,0,0,-10,10,-2,-33,-12,-10,-2,-7
1449106766506,3,0,0,12,1,39,15,9,13,16,12
1449106766506,3,0,0,15,-7,-53,1,16,16,12,12
1449106766552,0,0,0,0,-7,5,-2,-8,-6,1,0
1449106766552,0,0,0,-1,6,11,5,0,-7,-5,-3
1449106766553,1,0,0,6,-1,-9,-5,-9,-9,-14,1
1449106766553,1,0,0,4,-10,-17,-7,4,6,4,4
1449106766601,0,0,0,8,31,20,-57,-22,-12,-10,-2
1449106766601,3,0,0,-15,-14,-13,-15,0,-3,-8,-9
1449106766601,3,0,0,13,-22,-6,16,10,7,6,6
1449106766601,0,0,0,-7,-4,-15,2,-2,-7,-6,-3
1449106766602,1,0,0,-1,-30,-14,1,3,1,4,0
1449106766602,1,0,0,-6,-34,-8,17,2,2,3,-1
1449106766603,2,0,0,-6,26,-8,-6,9,4,-2,-3
1449106766603,2,0,0,-6,-55,-9,5,-8,-8,-7,-4
1449106766650,3,0,0,7,33,26,9,6,6,5,7
1449106766650,0,0,0,-6,3,76,19,-2,-6,-11,-11
1449106766650,3,0,0,-1,-17,-105,-39,-9,-1,0,-2
1449106766650,0,0,0,3,3,7,4,0,-5,-3,6
1449106766651,1,0,0,-5,-20,16,13,-4,0,3,-1
1449106766651,1,0,0,-7,-33,-45,-6,-2,-7,-3,-7
1449106766652,0,0,0,-2,-1,65,19,-2,-1,0,-3
1449106766652,0,0,0,-1,-30,17,7,5,-3,-6,-2
1449106766699,1,0,0,-4,-7,-20,-10,-9,-9,-10,-7
1449106766699,1,0,0,-11,-25,-111,-23,-6,-6,-6,-7
1449106766700,1,0,0,1,-12,23,10,-1,2,-3,-1
1449106766700,2,0,0,5,-2,-35,-8,10,13,15,12
1449106766700,1,0,0,3,14,16,10,6,3,0,3
1449106766700,2,0,0,9,48,59,38,12,7,3,5
1449106766701,2,0,0,-6,-27,23,-13,-6,-5,-9,-9
1449106766701,2,0,0,-4,1,-29,-1,-1,-5,-8,-3
1449106766747,3,0,0,1,-3,-34,-14,-5,-1,3,5
1449106766747,3,0,0,2,-2,37,12,-1,0,4,4
1449106766748,2,0,0,-6,-25,-42,-9,-2,1,0,-2
1449106766748,0,0,0,-1,-6,-35,-12,-3,-1,5,2
1449106766748,2,0,0,-8,-19,0,6,2,-5,-9,-6
1449106766748,0,0,0,-3,11,19,5,-1,-6,-10,-8
1449106766750,3,0,0,-4,7,-15,-12,-4,-1,0,-3
1449106766750,3,0,0,3,8,-1,2,4,5,0,1
1449106766796,0,0,0,-8,-9,-47,-20,-18,-15,-11,-8
1449106766796,0,0,0,-4,-2,44,11,4,-8,-18,-17
1449106766797,3,0,0,-19,-19,-28,-10,4,-5,-8,-15
1449106766797,1,0,0,-5,-13,-19,10,5,0,-1,1
1449106766797,1,0,0,12,20,0,-1,1,18,47,26
1449106766797,3,0,0,-8,-6,-4,-10,-16,-16,-22,-11
1449106766798,0,0,0,-3,9,-20,-12,-5,-7,-5,-3
1449106766798,0,0,0,4,-16,28,25,10,8,10,7
1449106766845,1,0,0,3,7,24,0,-8,-4,2,1
1449106766845,2,0,0,1,1,-14,-8,2,1,-2,1
1449106766845,1,0,0,-1,8,-2,9,8,4,1,0
1449106766845,2,0,0,0,-10,-7,0,-2,-1,2,3
1449106766846,0,0,0,-1,-8,-30,4,8,5,5,2
1449106766846,0,0,0,4,-1,16,-2,-7,-4,-1,1
1449106766847,1,0,0,4,-2,-22,5,3,-1,-5,-2
1449106766847,1,0,0,-8,-6,-6,-9,-6,-8,-8,-6
1449106766893,2,0,0,2,-3,22,4,-1,1,0,1
1449106766893,2,0,0,-4,2,16,-4,-2,-3,-2,-5
1449106766894,3,0,0,-5,-5,-3,-9,-9,-9,-10,-8
1449106766894,3,0,0,3,-4,-7,9,8,9,9,3
1449106766895,1,0,0,-5,8,45,-4,-6,-8,-11,-8
1449106766895,1,0,0,5,10,36,6,5,7,6,3
1449106766896,2,0,0,1,-15,-3,10,6,0,4,0
1449106766896,2,0,0,4,-2,11,9,7,4,2,3
1449106766942,3,0,0,-6,-17,-33,-15,-12,-11,-8,-4
1449106766942,3,0,0,-1,1,-41,-13,0,-1,0,1
1449106766943,1,0,0,7,-9,40,0,5,6,-1,-1
1449106766943,0,0,0,0,-9,9,4,-2,1,-1,2
1449106766943,0,0,0,-7,-9,-9,4,0,2,-1,-3
1449106766943,1,0,0,1,-5,42,5,-1,-1,2,8
1449106766945,2,0,0,3,16,-17,-18,-9,-2,1,0
1449106766945,2,0,0,-3,-19,31,10,4,-3,-4,0
1449106766991,3,0,1,-3,0,-30,1,-2,-3,0,-2
1449106766991,3,0,1,0,4,-16,-5,-1,-5,-3,-4
1449106766992,0,0,1,5,-2,32,-3,-10,-4,1,1
1449106766992,0,0,1,-3,3,11,5,4,5,5,-3
1449106766993,2,0,1,11,-6,-5,9,-1,-2,-2,6
1449106766993,3,0,1,-3,3,46,7,-1,-2,-9,-4
1449106766993,2,0,1,-4,10,30,4,4,1,6,-2
1449106766993,3,0,1,-10,1,-29,-14,-4,-5,-2,-3
1449106767040,0,0,1,-3,-21,-69,-8,-1,1,-2,-1
1449106767040,0,0,1,5,-3,20,11,8,4,8,2
1449106767040,1,0,1,-3,-8,0,-3,-5,-6,-4,-1
1449106767040,1,0,1,1,2,10,0,0,5,-4,1
1449106767041,3,0,1,-3,-8,32,8,-3,1,2,-5
1449106767041,3,0,1,-2,-13,-48,-6,1,0,-4,-3
1449106767042,0,0,1,-1,5,-30,-1,0,-4,-6,-3
1449106767042,0,0,1,-3,-2,37,0,5,7,0,-5
1449106767089,1,0,1,-1,-12,-54,-7,2,2,5,-1
1449106767089,1,0,1,2,-5,5,-1,-2,1,2,4
1449106767090,0,0,1,-3,2,-38,-10,-2,-2,-3,-1
1449106767090,0,0,1,2,-13,30,5,-1,-3,-3,-3
1449106767090,2,0,1,-2,0,-16,-7,-11,-7,-2,-3
1449106767090,2,0,1,-3,-13,-38,-5,-1,-2,-6,-2
1449106767091,1,0,1,3,-5,-11,3,-1,-1,-3,2
1449106767091,1,0,1,0,-2,14,4,3,3,2,4
1449106767137,2,0,1,-10,-2,-23,-1,-1,-5,-6,-7
1449106767137,2,0,1,-9,-12,-29,-10,-11,-10,-6,-11
1449106767138,3,0,1,2,-6,-11,2,9,12,19,13
1449106767138,1,0,1,1,10,5,-6,-8,-3,-7,-6
1449106767138,3,0,1,2,12,52,5,1,-3,-8,-1
1449106767138,1,0,1,2,-11,-8,1,1,-9,-14,-7
1449106767140,2,0,1,3,1,7,5,6,1,-15,-4
1449106767140,2,0,1,-12,-3,-35,-26,-7,-4,0,-1
1449106767186,0,0,1,0,5,5,19,-1,-5,-12,-8
1449106767186,3,0,1,-2,-13,-7,-2,7,9,14,1
1449106767186,0,0,1,8,-11,-10,-5,-3,11,28,12
1449106767186,3,0,1,-1,10,18,7,0,-8,-28,-7
1449106767187,2,0,1,-3,4,-1,-6,7,6,8,3
1449106767187,2,0,1,-3,-8,16,17,1,-10,-15,-7
1449106767188,3,0,1,-5,-5,-9,-5,-5,-8,-6,-14
1449106767188,3,0,1,4,4,20,3,1,1,-1,-2
1449106767235,1,0,1,1,-10,-1,-7,1,1,2,1
1449106767235,1,0,1,1,-1,20,19,1,-2,0,-2
1449106767235,0,0,1,-6,-4,-11,-12,-11,-3,-5,1
1449106767235,0,0,1,3,-9,0,-12,4,5,14,12
1449106767236,3,0,1,-3,2,-52,-3,9,6,2,1
1449106767236,3,0,1,-1,6,14,-5,-7,2,8,-1
1449106767237,0,0,1,-2,-3,21,7,-4,-2,2,-5
1449106767237,0,0,1,7,-12,5,4,8,5,0,1
1449106767332,1,0,1,-6,5,-16,-5,-5,-10,-19,-2
1449106767332,1,0,1,4,-11,-13,-5,-5,4,18,2
1449106767333,2,0,1,4,4,-41,3,3,-2,5,6
1449106767333,2,0,1,2,-1,-7,-9,6,10,6,5
1449106767334,0,0,1,2,-5,-27,-12,-7,-9,-7,-3
1449106767334,0,0,1,-5,-6,34,11,4,3,-5,-3
1449106767335,1,0,1,3,0,-23,-6,0,0,8,3
1449106767335,1,0,1,-1,-9,15,8,-2,1,-3,0
1449106767381,2,0,1,1,-7,-26,2,2,-1,4,3
1449106767381,2,0,1,-3,-7,-42,-8,-6,-3,-2,-2
1449106767382,1,0,1,-2,0,-13,1,-4,-3,-3,-1
1449106767382,3,0,1,-1,-9,-13,-10,-4,0,2,1
1449106767382,1,0,1,-5,-5,39,9,0,-4,-3,-1
1449106767382,3,0,1,-4,3,-7,-6,-2,-4,-1,-6
1449106767383,2,0,1,0,-6,-11,-1,0,1,2,1
1449106767383,2,0,1,2,-2,0,-2,-1,-2,-5,-3
1449106767430,3,0,1,3,-13,-18,3,2,3,0,-2
1449106767430,3,0,1,-1,1,-11,-11,-1,2,5,1
1449106767430,0,0,1,3,7,17,6,3,-3,-2,0
1449106767430,0,0,1,-8,-10,15,-4,-3,-1,-4,-11
1449106767431,2,0,1,2,-4,-9,-1,-4,-7,0,0
1449106767431,2,0,1,-3,5,8,5,1,13,16,2
1449106767432,3,0,1,-4,-10,-14,-8,-2,-2,-4,-10
1449106767432,3,0,1,2,-8,-12,-6,-2,-1,-3,3
1449106767478,0,0,1,1,-4,5,-1,-2,-4,-6,0
1449106767478,0,0,1,2,-1,-3,-4,-4,-3,2,2
1449106767479,1,0,1,-8,-17,-31,-10,-4,-5,-3,-4
1449106767479,1,0,1,0,10,27,10,0,2,5,3
1449106767480,3,0,1,0,-8,-4,8,13,7,3,-3
1449106767480,3,0,1,-2,1,1,-8,-9,-11,-12,0
1449106767481,0,0,1,0,-4,-18,-8,-6,-3,-7,3
1449106767481,0,0,1,0,2,21,6,0,1,2,6
1449106767527,1,0,1,0,-2,-28,-10,-1,-3,-3,-1
1449106767527,1,0,1,-2,4,11,-5,-8,3,-4,-4
1449106767532,0,0,1,-14,-12,-16,1,6,4,-2,-7
1449106767532,2,0,1,-1,-2,1,3,-2,-14,13,-4
1449106767532,1,0,1,-6,-1,1,-9,-8,-8,-10,-11
1449106767532,0,0,1,-6,-12,-19,-3,-9,-14,-5,-10
1449106767532,2,0,1,-2,8,-4,-9,3,36,-11,-2
1449106767532,1,0,1,21,-1,2,-3,-2,6,9,27
1449106767576,2,0,1,-2,-5,6,6,0,1,1,6
1449106767576,2,0,1,-8,3,-13,-6,-4,-12,-1,-4
1449106767577,1,0,1,-5,-4,14,2,2,-2,-1,-4
1449106767577,3,0,1,-4,10,37,12,6,8,0,-11
1449106767577,1,0,1,-1,-2,-21,-7,-4,-1,1,-3
1449106767577,3,0,1,6,3,8,0,-2,-5,4,4
1449106767578,2,0,1,-5,-9,13,1,1,3,-7,-6
1449106767578,2,0,1,4,4,-7,-4,0,9,9,11
1449106767625,3,0,1,-5,-9,0,-3,-3,-15,-16,-9
1449106767625,3,0,1,-3,-3,10,0,-1,2,-2,-1
1449106767626,0,0,1,1,-10,-3,3,7,-1,0,1
1449106767626,0,0,1,7,-3,10,2,-3,4,5,5
1449106767627,2,0,1,4,-4,-43,-12,-2,1,-2,2
1449106767627,2,0,1,0,10,22,-1,-4,-8,-5,-6
1449106767673,3,0,1,2,1,20,4,-2,-1,-1,-2
1449106767673,3,0,1,-6,-1,-16,-2,2,2,5,6
1449106767675,0,0,1,-2,-6,-10,-3,-4,-4,-1,2
1449106767675,1,0,1,1,-3,-21,-1,-3,0,4,3
1449106767675,0,0,1,-1,-10,-15,2,2,-1,-2,1
1449106767675,1,0,1,-5,0,7,1,0,3,-1,-7
1449106767676,2,0,1,-2,1,1,2,0,-4,-4,-2
1449106767676,2,0,1,-1,5,12,-6,-6,-10,-6,-4
1449106767722,3,0,1,1,-10,-20,-6,0,-2,-2,0
1449106767722,3,0,1,-2,-3,5,6,5,4,3,-2
1449106767723,3,0,1,-3,-6,-2,-2,-5,-3,0,-4
1449106767723,0,0,1,-2,-1,12,4,-2,1,1,0
1449106767723,0,0,1,2,12,8,-5,-8,-12,-4,1
1449106767723,3,0,1,-2,-2,3,-1,4,8,5,0
1449106767725,0,0,1,-1,-9,-11,-6,-5,-7,-5,0
1449106767725,0,0,1,0,-2,-2,3,4,5,5,1
1449106767771,1,0,1,-2,-4,-2,0,-3,-4,-6,-4
1449106767771,1,0,1,0,5,-19,-8,-6,-6,-6,-2
1449106767772,0,0,1,0,-6,-11,7,3,1,1,-2
1449106767772,2,0,1,1,2,-3,-5,-3,-5,-2,2
1449106767772,2,0,1,-2,-4,-2,5,7,12,6,-4
1449106767772,0,0,1,-2,-7,-16,-6,-3,0,-1,-5
1449106767773,1,0,1,2,3,17,-2,-4,-4,1,3
1449106767773,1,0,1,-3,-12,-12,0,-4,-5,4,1
1449106767820,2,0,1,1,-6,-2,-3,-6,-10,-6,5
1449106767820,2,0,1,-1,1,-2,-5,-3,-4,-1,-4
1449106767821,3,0,1,2,3,32,2,-2,1,-3,-3
1449106767821,1,0,1,-1,-1,2,-5,-7,-6,-8,-4
1449106767821,1,0,1,-1,-5,-17,-3,0,2,1,-1
1449106767821,3,0,1,-3,-3,-9,4,14,11,3,-5
1449106767822,2,0,1,-1,2,11,3,3,3,0,0
1449106767822,2,0,1,-5,-2,11,6,8,6,1,-3
1449106767869,3,0,1,-5,-7,-24,-6,1,3,1,1
1449106767869,3,0,1,4,2,19,0,-8,-7,-5,6
1449106767870,2,0,1,3,-1,-7,2,5,3,3,2
1449106767870,0,0,1,2,0,3,2,1,2,4,2
1449106767870,0,0,1,0,2,-22,-3,0,-1,0,1
1449106767870,2,0,1,2,-2,-4,-5,-4,-6,-4,3
1449106767871,3,0,1,-1,-5,-10,-7,-5,1,-2,-1
1449106767871,3,0,1,-3,4,9,1,-1,4,2,0
1449106767918,0,0,1,0,-3,9,5,5,-1,-5,-1
1449106767918,0,0,1,1,-4,-13,-7,-6,-2,0,-1
1449106767919,1,0,1,0,7,35,0,-2,6,6,0
1449106767919,3,0,1,-3,-6,-21,-15,-17,-12,-18,-7
1449106767919,1,0,1,-2,-10,-33,0,2,-11,-7,-4
1449106767919,3,0,1,3,4,21,9,9,5,7,9
1449106767920,0,0,1,0,-7,-17,-9,-10,-25,-13,3
1449106767920,0,0,1,3,2,11,4,3,3,1,2
1449106767966,1,0,1,6,6,10,-3,-2,-4,-10,-2
1449106767966,1,0,1,-9,-8,-13,0,2,34,7,-20
1449106767967,2,0,1,-9,-1,4,1,1,1,-4,-6
1449106767967,2,0,1,4,-1,1,-1,-2,-2,9,12
1449106767968,0,0,1,-3,-1,-2,0,2,-8,-12,-10
1449106767968,0,0,1,-7,-4,-4,-5,-7,17,9,-7
1449106767969,1,0,1,1,-3,-2,-5,-4,-16,-10,0
1449106767969,1,0,1,2,-4,1,0,0,-7,7,12
1449106768015,2,0,1,0,6,-2,-5,-16,-17,4,-5
1449106768015,2,0,1,2,8,7,3,5,10,-7,11
1449106768016,3,0,1,3,-1,-8,5,15,37,29,6
1449106768016,3,0,1,-7,2,1,-4,-3,5,-5,-13
1449106768017,1,0,1,-2,-1,-7,-8,-6,-21,-14,3
1449106768017,0,0,1,-1,2,0,-5,-5,-21,-16,1
1449106768017,0,0,1,0,-2,-1,0,-5,-25,6,-6
1449106768017,1,0,1,-1,-6,-2,-3,-4,13,-6,-6
1449106768064,2,0,1,1,0,3,-6,-9,-28,-15,-13
1449106768064,2,0,1,-4,-11,-8,1,-1,5,6,1
1449106768065,3,0,1,1,0,6,6,-1,-3,-1,-1
1449106768065,3,0,1,0,1,-6,3,15,50,3,9
1449106768065,1,0,1,-3,1,-2,-2,0,-4,-5,-2
1449106768065,1,0,1,-3,-4,-3,-2,-12,-21,-1,-5
1449106768066,2,0,1,-1,-7,-8,3,1,11,6,0
1449106768066,2,0,1,2,2,1,2,7,11,2,2
1449106768112,3,0,1,-1,-8,-7,7,6,13,6,2
1449106768112,3,0,1,2,3,9,-7,-6,-12,1,-1
1449106768113,0,0,1,-5,-2,2,-11,-11,-23,-12,-8
1449106768113,0,0,1,-1,-7,10,-2,-4,13,5,-3
1449106768114,2,0,1,-1,-5,4,15,7,4,-1,-1
1449106768114,2,0,1,2,3,7,11,13,13,8,4
1449106768115,3,0,1,-2,8,2,2,4,0,0,-2
1449106768115,3,0,1,-5,-17,-1,-9,-13,-14,-5,-1
1449106768161,0,0,1,-5,-10,-25,5,8,3,-1,-2
1449106768161,0,0,1,-1,0,5,-17,-6,8,2,0
1449106768162,1,0,1,-1,-2,1,-2,4,1,0,-7
1449106768162,3,0,1,-3,-9,-5,-2,-4,-5,-5,-3
1449106768162,1,0,1,0,3,-3,3,-5,-18,-3,-1
1449106768162,3,0,1,0,-2,3,0,3,-3,3,1
1449106768163,0,0,1,-6,-5,24,7,2,1,0,-2
1449106768163,0,0,1,-3,-3,-14,-4,-3,-1,-4,-8
1449106768210,2,0,1,1,-2,-15,-18,-6,-7,-3,-1
1449106768210,1,0,1,-3,0,-1,5,3,-5,-2,-4
1449106768210,1,0,1,1,-1,14,3,0,4,4,1
1449106768210,2,0,1,-1,-6,-12,-1,-2,2,0,0
1449106768211,0,0,1,0,2,12,-2,-3,-1,-1,-2
1449106768211,0,0,1,-1,-5,-16,-9,-4,-1,-3,-2
1449106768212,1,0,1,0,-6,-15,-13,-8,-7,-1,2
1449106768212,1,0,1,-3,2,-2,3,0,2,0,-1
1449106768258,2,0,1,-2,-1,20,10,1,3,0,-3
1449106768258,2,0,1,0,2,-11,-13,-8,1,-4,-1
1449106768274,3,0,1,1,3,9,11,11,5,3,1
1449106768274,3,0,1,-2,-3,2,2,0,-2,-1,-5
1449106768275,1,0,1,2,0,-2,7,1,0,0,5
1449106768275,2,0,1,-2,-1,3,-1,-2,0,6,1
1449106768275,2,0,1,-1,-3,-4,-8,1,-1,-3,-4
1449106768275,1,0,1,-6,-5,-1,-2,-3,-4,-5,-1
1449106768307,3,0,1,0,7,36,13,1,-2,5,-1
1449106768307,3,0,1,-4,-4,-22,-7,-4,-1,-5,-11
1449106768308,0,0,1,1,-2,-6,2,4,4,-6,2
1449106768308,0,0,1,0,1,-3,0,5,5,0,1
1449106768309,2,0,1,-1,-1,3,3,3,0,-2,-5
1449106768309,2,0,1,-1,2,-1,-4,-5,-4,-4,-3
1449106768310,3,0,1,2,6,12,4,-2,-4,-1,2
1449106768310,3,0,1,-1,-1,-8,-6,-1,2,0,0
1449106768356,0,0,1,-2,-2,-4,-3,-4,-1,1,-3
1449106768356,0,0,1,0,1,23,12,1,-2,-2,-2
1449106768357,2,0,1,-3,0,8,-4,-5,-4,-2,-7
1449106768357,2,0,1,-4,-6,-9,0,-1,1,0,3
1449106768357,1,0,1,3,4,-15,-11,0,-1,0,2
1449106768357,1,0,1,2,1,-9,-3,0,-1,-2,0
1449106768358,3,0,1,2,-1,16,6,2,-4,-5,3
1449106768358,3,0,1,-2,3,15,6,1,1,1,-7
1449106768405,0,0,1,0,-6,-37,-3,6,9,3,7
1449106768405,0,0,1,-3,-1,-7,-10,-6,-1,3,-6
1449106768406,3,0,1,1,-5,4,1,0,1,-5,-6
1449106768406,1,0,1,0,1,2,-5,-9,-10,7,3
1449106768406,3,0,1,0,-5,-28,-3,0,4,11,-5
1449106768406,1,0,1,-3,-5,-10,-7,-1,6,-27,-7
1449106768407,0,0,1,12,12,28,-2,-8,-2,3,7
1449106768407,0,0,1,-9,0,-5,-3,-3,-2,-5,7
1449106768454,1,0,1,3,2,9,7,3,0,11,7
1449106768454,1,0,1,-4,-7,-8,0,1,-5,-8,-7
1449106768455,0,0,1,-2,-2,-1,1,0,3,6,-1
1449106768455,0,0,1,1,-5,-9,-9,-6,-2,-2,-3
1449106768455,2,0,1,-9,-10,-16,-6,-1,-6,-9,-13
1449106768455,2,0,1,9,15,16,6,4,0,4,4
1449106768456,1,0,1,-2,-7,-5,-3,-4,-4,-2,0
1449106768456,1,0,1,-2,8,16,16,9,7,7,2
1449106768502,2,0,1,7,7,1,5,0,-7,-12,2
1449106768502,2,0,1,-1,-1,2,-4,-3,-5,2,-5
1449106768503,3,0,1,-2,-6,1,-4,-5,9,1,2
1449106768503,3,0,1,-1,6,13,9,11,7,7,-12
1449106768504,1,0,1,5,-3,-5,-6,-9,-2,6,14
1449106768504,1,0,1,7,20,29,1,-1,-6,-4,-2
1449106768505,2,0,1,-10,11,38,20,12,9,4,-15
1449106768505,2,0,1,-3,-10,-8,-7,4,-3,-2,-2
1449106768551,3,0,1,-4,4,-6,-7,-2,-6,-6,-2
1449106768551,3,0,1,-6,-19,-4,-3,-6,-6,-3,0
1449106768552,0,0,1,6,1,-12,1,1,2,1,-2
1449106768552,0,0,1,-3,-8,-19,-2,-2,3,4,-1
1449106768553,2,0,1,-3,-10,-39,-10,2,6,0,-6
1449106768553,3,0,1,0,40,-22,-16,-12,-10,-6,0
1449106768553,2,0,1,2,-5,20,11,1,-4,-6,-4
1449106768553,3,0,1,-9,-8,-11,-1,3,0,3,-3
1449106768600,0,0,1,5,-5,65,18,0,-3,2,6
1449106768600,1,0,1,-1,-28,7,-4,-1,-3,-5,-4
1449106768600,0,0,1,-7,31,6,5,-7,-5,-9,-8
1449106768600,1,0,1,3,15,-16,-37,-12,-8,-3,1
1449106768601,3,0,1,4,37,20,1,1,2,4,2
1449106768601,3,0,1,1,1,45,29,7,4,1,0
1449106768602,0,0,1,3,3,-5,-14,-2,4,3,-4
1449106768602,0,0,1,-7,-13,-15,-7,-4,-1,-4,-4
1449106768648,1,0,1,3,-18,-25,-3,-2,0,3,8
1449106768648,1,0,1,7,-11,-6,7,-16,-14,0,3
1449106768649,2,0,1,-12,-23,-10,-15,20,14,6,-2
1449106768649,2,0,1,-2,-1,63,25,-1,-1,0,4
1449106768650,0,0,1,6,32,19,8,-10,-7,-3,8
1449106768650,0,0,1,4,8,-46,-9,7,5,-7,-10
1449106768651,1,0,1,-16,-9,51,2,-9,-6,-11,-17
1449106768651,1,0,1,7,-24,-10,-4,4,7,3,9
1449106768697,2,0,1,1,6,14,-4,6,2,4,5
1449106768697,2,0,1,4,6,-7,-3,-3,-4,4,2
1449106768698,3,0,1,2,-22,-84,-39,2,-1,1,-3
1449106768698,3,0,1,10,22,39,37,7,4,4,4
1449106768699,1,0,1,11,63,43,6,3,2,2,11
1449106768699,1,0,1,-4,-17,-28,1,6,3,-4,-11
1449106768700,2,0,1,5,16,-42,-5,-7,-2,5,2
1449106768700,2,0,1,8,7,-1,-18,-4,-1,3,0
1449106768746,3,0,1,7,47,102,27,-3,-4,2,4
1449106768746,3,0,1,-30,-87,-9,8,8,12,7,-5
1449106768747,1,0,1,-22,-49,-109,-13,19,10,-15,-19
1449106768747,0,0,1,-3,-1,-54,-36,2,5,-3,-6
1449106768747,1,0,1,-2,14,-44,-50,-5,1,0,4
1449106768747,0,0,1,13,39,85,30,-12,-12,4,4
1449106768748,2,0,1,1,4,50,33,6,2,-2,6
1449106768748,2,0,1,-4,17,20,-21,-8,-9,-10,-15
1449106768795,0,0,1,2,-40,-100,-64,-9,-7,3,15
1449106768795,3,0,1,-5,-28,17,40,5,5,0,-4
1449106768795,3,0,1,24,41,24,28,-7,-11,-2,5
1449106768795,0,0,1,-42,-20,11,12,8,7,-12,-39
1449106768796,2,0,1,9,-1,-24,2,8,6,8,13
1449106768796,2,0,1,7,12,58,-11,-9,-3,5,9
1449106768797,3,0,1,-13,-21,7,17,14,6,1,0
1449106768797,3,0,1,5,-21,-52,-38,-17,-9,0,5
1449106768843,0,0,1,1,-9,-32,6,1,1,4,3
1449106768843,0,0,1,9,-15,-45,-29,1,6,-1,6
1449106768844,1,0,1,4,8,38,15,14,7,6,4
1449106768844,1,0,1,4,-9,-15,-28,-21,-14,-3,2
1449106768845,3,0,1,2,1,5,-12,-5,-9,2,12
1449106768845,3,0,1,7,36,23,10,4,0,-6,-5
1449106768846,0,0,1,-2,11,25,-4,-7,-8,-9,-10
1449106768846,0,0,1,12,-33,-22,41,5,-5,-11,-1
1449106768892,1,0,1,-13,-36,69,42,-2,-1,0,-7
1449106768892,1,0,1,17,68,-38,-66,-8,2,12,19
1449106768893,2,0,1,8,19,-12,4,6,1,6,7
1449106768893,2,0,1,-2,18,-12,-8,-5,-3,-6,-7
1449106768894,0,0,1,3,-4,4,21,10,-5,-8,-2
1449106768894,0,0,1,-6,-13,24,-15,-1,3,4,-5
1449106768895,1,0,1,6,21,27,11,17,11,9,6
1449106768895,1,0,1,-15,-16,-56,-19,0,4,3,4
1449106768941,2,0,1,0,-10,29,8,1,5,17,23
1449106768941,2,0,1,-6,-9,-6,-1,-16,-12,-6,-8
1449106768942,1,0,1,3,2,-7,13,4,-3,3,13
1449106768942,3,0,1,5,-3,15,25,18,9,3,-1
1449106768942,1,0,1,6,4,37,38,1,-5,-7,-9
1449106768942,3,0,1,-20,-36,-15,-19,-14,-13,-24,-34
1449106768943,2,0,1,-18,9,-54,-30,-25,-12,-3,-11
1449106768943,2,0,1,-6,18,46,32,7,8,9,17
1449106768992,3,0,1,-4,-19,-53,1,10,8,8,12
1449106768992,3,0,1,0,-38,24,-15,0,2,4,2
1449106768993,0,0,1,0,-10,-12,21,-3,-7,-4,1
1449106768993,2,0,1,7,10,-12,20,15,11,24,36
1449106768993,0,0,1,5,0,1,5,-5,2,3,-3
1449106768993,2,0,1,-4,-2,43,5,-1,6,3,-9
1449106768994,3,0,1,7,2,10,-3,1,-2,-14,-12
1449106768994,3,0,1,-10,1,3,-26,-12,-5,-23,-34
1449106769039,0,0,1,-12,-34,19,11,-3,-4,-6,-5
1449106769039,0,0,1,3,-5,-22,4,3,-5,-15,-16
1449106769040,3,0,1,-5,-37,-63,-6,-2,0,2,-4
1449106769040,1,0,1,-3,19,-37,-55,-18,-10,-1,-2
1449106769040,3,0,1,-10,-10,58,-6,-3,0,1,-6
1449106769040,1,0,1,1,27,8,-5,0,6,23,31
1449106769041,0,0,1,23,6,-26,16,3,3,11,25
1449106769041,0,0,1,5,17,-34,-35,-8,-7,-10,-16
1449106769088,2,0,1,6,-7,26,23,8,7,-3,-11
1449106769088,1,0,1,12,-8,-58,-16,-1,2,6,11
1449106769088,1,0,1,-77,-81,-8,-3,-21,-15,-25,-39
1449106769088,2,0,1,-5,33,40,-27,-7,-3,5,10
1449106769089,3,0,1,23,-8,-3,11,7,1,2,2
1449106769089,3,0,1,32,80,11,27,2,6,8,14
1449106769090,0,0,1,-38,-55,-32,-27,9,2,-9,-18
1449106769090,0,0,1,10,-16,-5,-21,5,13,6,3
1449106769136,1,0,1,14,34,56,17,3,0,2,8
1449106769136,1,0,1,-15,-37,-20,-2,-8,-3,5,7
1449106769137,0,0,1,-55,-64,-12,1,-7,-2,-6,-12
1449106769137,2,0,1,10,51,53,48,-1,-2,-1,-4
1449106769137,0,0,1,-20,-34,-27,-4,10,-3,-4,-14
1449106769137,2,0,1,-29,32,26,-50,-12,-8,-16,-19
1449106769139,1,0,1,14,34,45,38,-9,3,8,11
1449106769139,1,0,1,4,26,-56,-55,7,-7,-15,-15
1449106769185,2,0,1,55,17,28,60,-6,-5,5,17
1449106769185,3,0,1,-18,-22,-18,36,32,6,-8,-18
1449106769185,3,0,1,33,-54,-61,2,36,12,15,21
1449106769185,2,0,1,-38,8,35,-45,-17,3,1,-1
1449106769186,1,0,1,45,74,18,4,-8,1,7,14
1449106769186,1,0,1,19,18,15,6,-14,-4,1,8
1449106769187,2,0,1,9,2,-36,-12,2,-3,-4,-1
1449106769187,2,0,1,3,24,73,77,-3,-3,5,6
1449106769234,3,0,1,-20,-21,30,13,-3,-2,-7,-18
1449106769234,3,0,1,-35,-36,-43,-81,-13,-3,-3,-6
1449106769235,2,0,1,-30,-53,-11,21,21,14,6,-3
1449106769235,0,0,1,38,80,-34,2,-32,-11,-12,-8
1449106769235,0,0,1,1,-8,-47,-20,34,7,4,-1
1449106769235,2,0,1,-2,-26,-28,-30,11,4,12,14
1449106769236,3,0,1,23,-22,-68,-34,-5,-6,-19,-14
1449106769236,3,0,1,12,0,49,5,-10,-5,2,12
1449106769282,0,0,1,-15,-20,-11,-19,-14,-2,-1,-13
1449106769282,0,0,1,-21,10,-26,-9,-8,-4,-5,1
1449106769283,1,0,1,-10,-49,1,15,13,12,21,23
1449106769283,1,0,1,-41,35,116,13,-28,-14,-27,-43
1449106769284,3,0,1,-17,-54,-108,-61,48,17,18,23
1449106769284,3,0,1,-1,13,29,28,-18,-7,2,3
1449106769285,0,0,1,9,1,85,49,4,0,-9,-13
1449106769285,0,0,1,30,25,-47,-33,3,-2,2,7
1449106769331,1,0,1,-42,5,16,18,-25,-15,-19,-28
1449106769331,1,0,1,-3,-12,14,34,-4,-2,-3,-5
1449106769332,0,0,1,3,14,51,31,21,8,2,0
1449106769332,2,0,1,20,20,-123,-105,5,11,22,32
1449106769332,2,0,1,-11,30,103,20,-32,-22,-23,-21
1449106769332,0,0,1,27,18,15,28,2,3,0,2
1449106769333,1,0,1,1,-18,-17,-38,-3,-2,15,21
1449106769333,1,0,1,-6,7,0,-13,-32,-13,3,7
1449106769380,3,0,1,-2,-4,74,33,-10,-7,-19,-22
1449106769380,2,0,1,2,-9,-21,2,-7,-5,-15,-15
1449106769380,3,0,1,-11,-20,-14,-12,10,2,-1,-2
1449106769380,2,0,1,-20,-37,-58,-34,9,2,-15,-21
1449106769381,1,0,1,34,43,-33,-22,23,21,23,26
1449106769381,1,0,1,34,31,-15,6,-10,-1,6,24
1449106769382,2,0,1,-77,-59,-6,-44,-25,-22,-27,-41
1449106769382,2,0,1,-10,-51,25,56,11,7,5,4
1449106769428,3,0,1,44,-15,-89,-18,13,5,-8,-12
1449106769428,3,0,1,-28,-9,94,35,-13,-3,8,3
1449106769429,0,0,1,15,45,-36,-38,-2,-1,1,5
1449106769429,0,0,1,-4,8,-7,1,-4,-1,-1,0
1449106769430,1,0,1,16,-10,12,21,9,6,10,10
1449106769430,1,0,1,-18,-17,27,-9,-23,-12,-13,-16
1449106769431,2,0,1,9,4,-11,0,11,-1,-1,4
1449106769431,2,0,1,-5,-19,34,6,-6,-3,-5,-3
1449106769477,3,0,1,-14,-6,-23,-15,-8,-3,-4,-10
1449106769477,3,0,1,-9,1,-1,3,4,-4,-7,0
1449106769478,0,0,1,-2,15,47,25,8,8,9,1
1449106769478,0,0,1,15,17,-30,-23,-5,0,-2,6
1449106769526,2,0,1,18,18,17,19,6,-2,-13,4
1449106769526,2,0,1,32,6,-38,-12,2,3,20,6
1449106769527,0,0,1,25,3,14,15,2,6,45,46
1449106769527,3,0,1,-66,-30,3,2,-9,-10,-13,6
1449106769527,0,0,1,-16,-12,-18,-23,-5,1,0,-12
1449106769527,3,0,1,-3,10,-18,1,4,-1,-26,-25
1449106769528,1,0,1,12,12,-29,-19,6,3,10,10
1449106769528,1,0,1,12,-3,2,10,0,0,0,7
1449106769575,0,0,1,4,-11,-17,-10,-7,-1,-2,-6
1449106769575,3,0,1,-3,-2,-8,-11,-1,-3,-2,-3
1449106769575,0,0,1,-1,9,14,4,-7,-8,-10,4
1449106769575,3,0,1,9,13,15,24,14,3,-2,1
1449106769576,0,0,1,-2,8,-24,16,0,0,-7,-2
1449106769576,0,0,1,-5,-17,43,-26,1,5,1,-5
1449106769577,1,0,1,4,-5,-5,-11,-2,0,3,4
1449106769577,1,0,1,6,4,13,1,7,14,12,5
1449106769624,2,0,1,0,4,19,-18,-13,-8,-6,1
1449106769624,2,0,1,-14,-19,-52,-4,-10,-10,-9,-9
1449106769625,3,0,1,2,-4,-46,-24,0,1,2,0
1449106769625,1,0,1,1,-3,-1,-11,-1,1,2,2
1449106769625,1,0,1,0,0,50,21,1,1,4,-1
1449106769625,3,0,1,-9,2,23,8,-7,-5,-6,-7
1449106769626,2,0,1,3,0,6,10,-7,-6,-4,-4
1449106769626,2,0,1,-3,3,28,21,20,1,-2,0
1449106769672,3,0,1,2,9,26,1,17,11,7,1
1449106769672,3,0,1,-1,-14,-51,-38,-22,-8,-4,-4
1449106769673,0,0,1,2,-2,4,51,5,-3,-3,1
1449106769673,0,0,1,2,8,9,16,15,6,1,0
1449106769674,2,0,1,-1,-11,-37,-14,-7,-2,0,1
1449106769674,2,0,1,1,3,6,-22,-20,-6,-5,-2
1449106769675,3,0,1,-6,-2,-21,-22,-16,-6,-7,-6
1449106769675,3,0,1,0,0,-7,7,4,-1,-2,-4
1449106769721,1,0,1,-5,-8,13,9,-2,9,9,-2
1449106769721,0,0,1,-8,-23,-7,-14,2,-6,-4,0
1449106769721,0,0,1,3,-2,2,9,5,5,1,-1
1449106769721,1,0,1,-1,-2,-4,3,-5,-5,-1,-1
1449106769722,3,0,1,4,14,3,25,17,4,0,0
1449106769722,3,0,1,2,7,-14,-1,-1,-5,-4,1
1449106769723,0,0,1,-6,-3,24,16,9,-8,-1,-5
1449106769723,0,0,1,1,-2,9,5,8,12,13,4
1449106769770,1,0,1,-2,4,-15,-17,-21,-37,-37,-12
1449106769770,2,0,1,0,-1,-37,-3,4,9,6,3
1449106769770,1,0,1,7,5,15,15,12,51,27,10
1449106769770,2,0,1,-6,-3,20,-6,-6,-6,-6,-6
1449106769771,3,0,1,-6,2,8,-2,-6,-10,-2,-18
1449106769771,3,0,1,0,-7,-7,0,-2,-6,4,24
1449106769772,0,0,1,-9,-7,-20,-16,-2,-2,-10,-7
1449106769772,0,0,1,4,6,8,9,-2,-2,1,1
1449106769818,1,0,1,-3,-4,-6,-2,-8,-17,-12,-11
1449106769818,1,0,1,7,3,1,5,9,11,11,5
1449106769819,2,0,1,-2,-1,-5,-4,-7,-11,-8,-3
1449106769819,2,0,1,4,5,10,1,2,5,6,5
1449106769820,0,0,1,-13,-17,37,-5,-8,-7,-1,-19
1449106769820,0,0,1,-18,-1,-36,-5,8,14,-5,0
1449106769821,1,0,1,14,1,0,-1,-4,0,9,22
1449106769821,1,0,1,-2,-13,-55,-7,5,4,4,-8
1449106769867,2,0,1,-7,-10,-5,8,-4,-19,-4,-16
1449106769867,2,0,1,4,-1,52,4,-3,-7,-8,11
1449106769868,1,0,1,-6,-1,-1,8,4,2,1,1
1449106769868,3,0,1,-5,-14,-5,-4,4,28,12,2
1449106769868,1,0,1,7,5,18,2,1,-5,-1,-4
1449106769868,3,0,1,1,3,-9,-9,-9,-18,-14,-1
1449106769870,2,0,1,-4,-6,-22,-10,-5,1,-2,-3
1449106769870,2,0,1,3,1,7,-4,-8,-10,1,2
1449106769916,3,0,1,1,-10,-7,2,1,-1,-9,-2
1449106769916,3,0,1,-10,-12,-15,-9,-8,-25,6,0
1449106769917,0,0,1,5,6,5,4,7,23,6,0
1449106769917,2,0,1,0,-5,-20,1,3,1,-4,3
1449106769917,0,0,1,8,6,-7,0,-2,-5,-5,-4
1449106769917,2,0,1,3,2,24,5,8,9,7,7
1449106769918,3,0,1,-1,2,3,2,-3,-1,-7,-6
1449106769918,3,0,1,-1,5,-3,-4,-9,-10,-10,-10
1449106769965,1,0,1,-4,1,10,-5,-6,-7,-4,-5
1449106769965,0,0,1,-1,-1,-33,-9,-3,-6,2,3
1449106769965,0,0,1,1,7,25,-6,-6,2,-3,-5
1449106769965,1,0,1,2,8,-4,1,-2,-2,-3,5
1449106769966,3,0,1,1,-6,5,-6,-4,-4,8,-1
1449106769966,3,0,1,-5,-5,-11,-3,-5,-11,-8,-3
1449106769967,0,0,1,-1,-5,-7,5,7,8,10,2
1449106769967,0,0,1,-7,0,3,-1,-8,-12,-10,1
1449106770013,1,0,1,-3,-10,-18,-3,0,5,-10,-2
1449106770013,1,0,1,9,5,15,4,1,4,3,4
1449106770014,2,0,1,-13,-3,-9,-7,-2,-5,-3,-4
1449106770014,2,0,1,1,-9,-4,4,3,4,2,1
1449106770015,0,0,1,-5,0,-25,-8,-5,-8,-8,-12
1449106770015,0,0,1,11,17,39,9,7,12,11,13
1449106770016,1,0,1,1,0,-3,-3,-4,1,6,-4
1449106770016,1,0,1,0,-10,-5,0,4,9,3,4
1449106770062,2,0,1,-11,-4,-21,-13,-15,-14,-18,-6
1449106770062,2,0,1,11,5,12,8,2,0,-1,-4
1449106770063,1,0,1,-5,-10,3,-2,1,-1,1,-3
1449106770063,3,0,1,3,0,0,1,4,-4,3,9
1449106770063,3,0,1,-12,2,14,0,-2,2,-10,-21
1449106770063,1,0,1,0,-6,-19,-7,-5,-8,-5,3
1449106770065,2,0,1,8,6,17,6,-1,3,-2,4
1449106770065,2,0,1,-5,-4,-21,-5,-5,-5,2,-2
1449106770111,0,0,1,2,2,-1,-1,-1,-2,-2,1
1449106770111,3,0,1,3,14,27,13,9,5,-4,-14
1449106770111,3,0,1,-8,-8,1,2,2,3,-2,-6
1449106770111,0,0,1,-3,-13,-16,-5,-6,-8,-4,-2
1449106770112,2,0,1,-1,6,7,-1,1,-5,-1,-12
1449106770112,2,0,1,2,-2,7,2,4,5,-5,1
1449106770113,3,0,1,-3,1,-5,-1,-4,-5,6,-2
1449106770113,3,0,1,6,5,13,4,3,8,-2,-7
1449106770160,0,0,1,-5,-9,-13,-4,-6,-3,-6,14
1449106770160,0,0,1,6,-2,-2,1,1,-23,2,1
1449106770161,1,0,1,-8,-1,2,-3,-3,5,-4,-5
1449106770161,2,0,1,-6,-3,6,-1,-1,1,-7,-8
1449106770161,1,0,1,3,-2,1,-1,-3,-2,-1,-3
1449106770161,2,0,1,-1,0,1,0,2,4,2,-1
1449106770162,3,0,1,-1,-4,-20,1,-3,-7,-2,0
1449106770162,3,0,1,-4,1,41,5,2,-1,1,0
1449106770208,0,0,1,-23,-24,2,-15,-14,-7,-6,-10
1449106770208,0,0,1,10,6,-17,6,5,6,4,3
1449106770209,1,0,1,-2,-7,-1,-11,0,4,4,2
1449106770209,1,0,1,2,10,-7,1,-1,-3,7,9
1449106770217,3,0,1,2,-7,-5,-1,-1,-17,-14,1
1449106770217,3,0,1,2,-8,0,0,1,41,15,15
1449106770218,0,0,1,3,5,14,-1,3,12,15,4
1449106770218,0,0,1,0,-3,-12,-6,-7,-7,-2,2
1449106770257,1,0,1,-4,-7,0,-4,0,-8,-11,-17
1449106770257,1,0,1,-2,-2,-6,2,2,4,7,1
1449106770258,2,0,1,-3,2,-3,1,9,11,-2,-4
1449106770258,0,0,1,-1,4,24,1,-4,0,1,-5
1449106770258,0,0,1,1,-1,0,-2,-4,-11,-5,0
1449106770258,2,0,1,-2,-4,4,-4,-6,-8,-2,1
1449106770260,1,0,1,-5,9,21,-3,-9,-11,-4,3
1449106770260,1,0,1,5,7,-10,2,5,13,1,-1
1449106770306,2,0,1,-4,2,-10,-4,-2,1,-8,-20
1449106770306,3,0,1,2,-3,1,-7,-9,-3,3,-5
1449106770306,2,0,1,-1,-10,-1,0,2,-7,3,10
1449106770306,3,0,1,1,-7,-9,1,-2,-3,-7,-2
1449106770307,1,0,1,-2,-1,11,3,-3,-6,-5,2
1449106770307,1,0,1,-4,-9,-12,6,11,2,-2,-9
1449106770308,2,0,1,-16,-7,-30,-10,-11,-5,-8,-22
1449106770308,2,0,1,13,0,1,5,2,1,2,-1
1449106770355,0,0,1,6,-1,-18,2,8,10,12,14
1449106770355,0,0,1,0,-1,8,0,-2,-5,-6,-7
1449106770355,3,0,1,-3,-13,-6,5,4,4,5,1
1449106770355,3,0,1,8,10,4,-7,-7,-5,1,12
1449106770356,2,0,1,-5,3,9,0,-4,-2,-13,-16
1449106770356,2,0,1,6,-14,-39,2,8,1,10,7
1449106770357,3,0,1,5,-9,13,2,-2,-6,0,3
1449106770357,3,0,1,-7,0,19,0,-5,-7,3,14
1449106770403,0,0,1,-10,6,5,-12,-3,5,0,-16
1449106770403,0,0,1,-1,-5,-5,3,2,17,10,9
1449106770404,1,0,1,7,5,-17,-2,4,-5,-4,2
1449106770404,1,0,1,-5,-9,-2,-3,-5,-2,-3,-5
1449106770405,3,0,1,-6,2,-2,1,2,4,1,-3
1449106770405,3,0,1,-18,-9,26,3,1,2,2,-10
1449106770406,0,0,1,0,-5,-19,-1,-1,3,1,4
1449106770406,0,0,1,6,4,-4,-1,-4,-11,-3,12
1449106770452,1,0,1,1,2,-5,1,-2,-2,-2,-4
1449106770452,1,0,1,0,-6,10,-4,2,-3,-3,-4
1449106770453,2,0,1,8,6,-6,-2,-5,-7,4,16
1449106770453,2,0,1,-5,-7,-6,3,3,6,-1,-5
1449106770454,0,0,1,-1,-2,-7,-1,3,1,0,-2
1449106770454,0,0,1,0,-14,-15,3,2,-2,1,-2
1449106770455,1,0,1,-3,-3,1,-7,-5,-3,-2,-1
1449106770455,1,0,1,2,9,10,3,3,1,1,4
1449106770501,2,0,1,-1,-7,-27,-2,5,3,4,3
1449106770501,2,0,1,-6,-7,7,-6,-8,0,-3,-3
1449106770504,3,0,1,-1,-2,-17,-2,-2,6,3,-4
1449106770504,3,0,1,4,2,7,12,8,-4,-10,2
1449106770506,0,0,1,-5,1,9,-11,-15,-12,-6,1
1449106770506,0,0,1,4,4,23,-2,1,3,1,0
1449106770507,1,0,1,-5,-4,10,-2,-3,-7,-8,-5
1449106770507,1,0,1,0,0,-15,-5,-1,6,4,-5
1449106770550,2,0,1,2,-3,-6,-9,-9,-4,2,-1
1449106770550,2,0,1,4,2,1,8,8,10,9,7
1449106770551,1,0,1,6,12,4,8,14,9,9,3
1449106770551,3,0,1,-4,-12,-3,-1,0,-1,-5,1
1449106770551,3,0,1,1,-1,-9,1,0,-1,2,-3
1449106770551,1,0,1,-17,-5,16,-5,-15,-9,-8,-8
1449106770555,2,0,1,-5,-18,-46,4,7,3,-8,0
1449106770555,2,0,1,7,15,57,16,6,1,13,6
1449106770599,3,0,1,-4,-35,-53,-27,-17,-11,-7,-2
1449106770599,3,0,1,-8,14,11,6,-1,1,-4,-12
1449106770601,0,0,1,7,-10,-41,-15,5,3,6,6
1449106770601,0,0,1,-6,13,72,20,-12,-10,-13,-8
1449106770602,2,0,1,-1,2,12,-6,-1,-2,-1,-4
1449106770602,2,0,1,12,19,-6,16,10,9,12,16
1449106770604,3,0,1,3,-17,5,3,1,3,6,0
1449106770604,3,0,1,-5,-23,-22,-4,0,1,1,7
1449106770647,0,0,1,-7,-21,-21,-1,-9,-10,-9,0
1449106770647,0,0,1,-2,-13,-49,-20,-12,-5,-4,-8
1449106770648,1,0,1,-8,-4,27,11,7,6,1,3
1449106770648,1,0,1,-1,-7,-21,-9,11,2,-1,-7
1449106770648,3,0,1,-9,-50,-77,90,33,2,3,2
1449106770648,3,0,1,2,15,29,-81,-27,-7,-4,-1
1449106770650,0,0,1,-8,-31,-8,16,6,3,-5,-10
1449106770650,0,0,1,-16,-5,-20,-7,-11,-13,-12,-17
1449106770696,1,0,1,0,23,31,-27,-16,-6,-3,-1
1449106770696,1,0,1,12,35,-4,-8,1,2,8,10
1449106770697,2,0,1,1,-9,-35,-7,3,3,-5,-2
1449106770697,2,0,1,2,9,-1,-9,-4,-4,-8,-4
1449106770699,1,0,1,-3,-10,30,2,5,2,1,-2
1449106770699,0,0,1,9,12,14,-13,0,2,4,8
1449106770699,1,0,1,-3,-19,-22,12,0,-2,-5,-3
1449106770699,0,0,1,-11,-34,-10,7,1,4,15,3
1449106770745,2,0,1,-2,-5,-2,-4,3,3,-4,-6
1449106770745,2,0,1,-2,9,-8,-1,8,1,-1,0
1449106770746,1,0,1,6,-7,-5,3,-13,-6,1,4
1449106770746,3,0,1,5,5,10,-2,-13,-6,2,1
1449106770746,1,0,1,0,23,-30,22,22,10,0,-5
1449106770746,3,0,1,6,29,37,-3,-4,1,-1,-1
1449106770747,2,0,1,-17,-36,-8,-14,-3,3,2,-3
1449106770747,2,0,1,-5,12,-34,2,-3,-2,-2,0
1449106770793,3,0,1,5,14,7,-13,-4,-1,3,4
1449106770793,3,0,1,1,0,35,0,-4,-1,-1,-2
1449106770794,0,0,1,3,-1,-4,12,4,0,-1,-3
1449106770794,0,0,1,13,9,2,5,5,7,10,6
1449106770795,2,0,1,-5,12,18,-23,-11,-5,-10,-5
1449106770795,2,0,1,5,15,14,2,-2,0,2,0
1449106770796,3,0,1,-8,-16,4,-35,-23,-13,-8,-7
1449106770796,3,0,1,16,26,25,30,18,13,13,9
1449106770843,0,0,1,-3,10,-9,-45,-11,-1,4,2
1449106770843,0,0,1,-4,0,-30,4,18,1,-9,-9
1449106770844,2,0,1,-6,-21,-15,-7,-8,-7,-8,-9
1449106770844,1,0,1,4,-29,-1,90,23,4,1,6
1449106770844,1,0,1,-7,-20,23,3,1,0,-1,-6
1449106770844,2,0,1,10,19,2,-4,-5,-1,2,8
1449106770845,3,0,1,3,-36,-23,-10,0,0,2,3
1449106770845,3,0,1,0,45,-6,-5,-2,2,-1,2
1449106770891,0,0,1,-7,-22,-2,-6,-4,-7,-9,-8
1449106770891,0,0,1,0,-3,1,8,2,2,7,8
1449106770892,1,0,1,1,-12,-21,0,-3,-4,-10,-7
1449106770892,1,0,1,-1,-1,-1,-21,-13,-8,-12,-6
1449106770893,3,0,1,1,13,15,-5,1,2,0,1
1449106770893,0,0,1,6,-6,-15,10,7,5,5,5
1449106770893,0,0,1,-17,10,0,3,-4,-7,-9,-13
1449106770893,3,0,1,3,8,-35,-7,-2,-1,-1,2
1449106771086,1,0,1,3,-27,-69,-31,-3,1,4,3
1449106771086,1,0,1,-2,3,16,-26,-11,-7,-3,-2
1449106771087,2,0,1,3,5,-4,11,-3,-6,0,3
1449106771087,2,0,1,-13,-20,27,10,1,-10,-16,-13
1449106771088,1,0,1,-12,-17,-2,2,4,-5,-13,-12
1449106771088,0,0,1,7,5,46,-11,-11,-3,-2,3
1449106771088,1,0,1,-4,-13,14,5,-4,-6,-8,-6
1449106771088,0,0,1,6,7,-44,3,6,4,3,4
1449106771135,3,0,1,-8,-6,-18,3,-1,-1,0,0
1449106771135,3,0,1,9,32,19,4,3,3,5,4
1449106771135,2,0,1,-11,-6,-1,-10,-17,-12,-7,-8
1449106771135,2,0,1,5,-16,-27,3,5,5,3,6
1449106771136,0,0,1,-4,-7,-31,-14,-13,-6,-2,-4
1449106771136,0,0,1,-2,1,-7,4,9,2,-1,-1
1449106771137,1,0,1,-4,-3,35,-6,-11,-10,-11,-7
1449106771137,1,0,1,-3,9,-45,-22,-2,0,-1,-2
1449106771183,2,0,1,1,1,53,47,15,7,3,-2
1449106771183,2,0,1,-1,-15,-31,-14,-1,-4,-4,-2
1449106771184,3,0,1,-5,-10,20,-3,-4,1,2,-2
1449106771184,3,0,1,6,-3,-17,-1,0,-6,-3,1
1449106771185,0,0,1,-9,-14,-2,-1,-3,-2,-2,-4
1449106771185,0,0,1,-9,-15,-18,-12,-6,-1,-3,-4
1449106771186,1,0,1,-1,7,61,9,0,3,3,3
1449106771186,1,0,1,6,1,-30,7,6,5,4,4
1449106771232,2,0,1,-4,4,27,-3,-11,-8,-3,-5
1449106771232,2,0,1,-8,-17,-14,-13,-7,-9,-14,-5
1449106771233,3,0,1,-8,-27,-29,-2,4,7,5,-1
1449106771233,3,0,1,-1,-5,-26,-1,-3,-1,5,2
1449106771234,1,0,1,-6,2,14,-3,1,-4,-4,1
1449106771234,1,0,1,9,1,12,3,4,4,5,7
1449106771235,2,0,1,1,-17,-19,9,9,4,1,1
1449106771235,2,0,1,0,0,-13,-5,-5,-4,2,1
1449106771281,3,0,1,5,30,24,-3,6,7,10,6
1449106771281,3,0,1,-6,-15,6,2,-2,-2,-8,-9
1449106771282,0,0,1,-3,-3,4,-4,3,-8,-12,-8
1449106771282,0,0,1,1,20,-10,3,-7,-6,0,2
1449106771283,3,0,1,-2,0,-14,-2,-6,-5,-2,-2
1449106771283,3,0,1,-15,-7,-42,-5,0,-4,-8,-7
1449106771283,2,0,1,-2,6,-18,1,-6,5,13,4
1449106771283,2,0,1,6,29,20,-8,1,4,1,3
1449106771330,0,0,1,5,4,24,-9,-6,-2,2,0
1449106771330,0,0,1,-1,0,-21,-1,3,3,-2,0
1449106771331,3,0,1,9,11,17,6,3,0,4,2
1449106771331,1,0,1,3,3,-7,5,4,-1,-4,-4
1449106771331,1,0,1,5,9,41,11,1,3,1,-1
1449106771331,3,0,1,-2,-18,-33,5,6,3,0,-2
1449106771332,0,0,1,5,-19,-1,42,20,12,13,9
1449106771332,0,0,1,-5,30,14,-43,-20,-11,-14,-12
1449106771378,1,0,1,2,18,0,-1,-8,-5,-3,-1
1449106771378,1,0,1,-4,-11,-19,-7,-6,0,0,-2
1449106771381,0,0,1,-3,-14,-18,0,-4,-5,-7,-4
1449106771381,2,0,1,-1,-22,8,9,6,6,4,3
1449106771381,0,0,1,-1,8,42,-2,2,-2,-9,-5
1449106771381,2,0,1,-5,-9,-1,-26,-19,-13,-7,0
1449106771382,1,0,1,0,-14,-32,2,2,2,7,3
1449106771382,1,0,1,15,-4,10,4,-1,1,2,9
1449106771427,2,0,1,-15,12,12,-7,-7,-9,-4,-6
1449106771427,2,0,1,-4,-7,16,-5,-1,-3,-4,-5
1449106771428,3,0,1,1,-9,-13,-7,-10,-6,-9,-7
1449106771428,3,0,1,0,3,0,-1,1,4,6,3
1449106771429,1,0,1,-11,-5,-15,17,10,4,-1,-4
1449106771429,1,0,1,1,14,-9,-25,-12,-6,-6,-3
1449106771430,2,0,1,1,-1,-4,-13,-7,1,5,3
1449106771430,2,0,1,9,-6,-2,7,4,3,3,9
1449106771476,3,0,1,3,3,23,12,5,6,4,5
1449106771476,3,0,1,-4,-22,5,3,-4,-8,-7,-7
1449106771477,2,0,1,2,-2,-10,-3,-1,1,3,7
1449106771477,0,0,1,-1,1,14,3,0,2,-1,-3
1449106771477,0,0,1,-1,-23,-62,-7,5,1,7,2
1449106771477,2,0,1,-12,-24,-30,-14,-10,-9,-12,-10
1449106771478,3,0,1,4,53,52,0,-3,-4,-3,-2
1449106771478,3,0,1,-2,-31,-39,4,6,6,2,-1
1449106771525,0,0,1,0,2,11,12,9,4,4,-1
1449106771525,0,0,1,5,14,14,-6,-3,1,4,1
1449106771525,1,0,1,-2,-35,-16,2,9,2,3,3
1449106771525,1,0,1,-1,-11,4,1,-3,-3,-3,-3
1449106771526,3,0,1,-8,-3,6,-5,-10,-5,-2,-3
1449106771526,3,0,1,-10,-3,-25,-14,-8,0,1,-1
1449106771527,0,0,1,-5,-19,-15,2,6,0,-2,-2
1449106771527,0,0,1,-1,11,5,1,0,-3,-7,-4
1449106771573,1,0,1,10,-1,-12,1,-2,-2,2,4
1449106771573,1,0,1,2,28,4,-15,-4,-4,-7,-5
1449106771574,2,0,1,-1,4,23,27,5,3,3,-1
1449106771574,2,0,1,-6,-9,-23,-4,4,0,-5,-3
1449106771575,3,0,1,2,0,5,4,-2,-6,-3,-2
1449106771575,3,0,1,-12,-32,-35,-12,-5,-4,-6,-3
1449106771576,0,0,1,0,12,98,5,4,7,2,-1
1449106771576,0,0,1,8,0,-47,-6,-4,-2,4,3
1449106771622,1,0,1,-5,-16,7,15,-2,0,4,-4
1449106771622,1,0,1,-1,-5,-23,-13,2,-2,-5,-4
1449106771623,2,0,1,2,-18,-28,-3,-1,-1,-1,3
1449106771623,2,0,1,-4,0,-6,-10,-8,-8,-12,-9
1449106771624,0,0,1,3,32,30,1,-2,2,7,8
1449106771624,0,0,1,2,4,-8,-6,-5,1,4,1
1449106771625,1,0,1,-4,7,5,-4,-5,-7,-13,-8
1449106771625,1,0,1,3,-5,-3,6,-1,-1,4,4
1449106771671,2,0,1,2,19,-5,-12,-9,-8,-9,-3
1449106771671,2,0,1,-5,8,7,10,6,3,2,-2
1449106771720,1,0,1,1,9,15,-5,-1,-1,-6,-3
1449106771720,3,0,1,-1,-10,-8,5,6,5,3,0
1449106771720,1,0,1,6,16,-10,-1,-2,2,0,3
1449106771720,3,0,1,-14,-41,-18,10,5,1,-1,-6
1449106771721,2,0,1,9,-16,-15,10,9,13,17,10
1449106771721,2,0,1,-1,-7,2,5,-2,-3,-2,1
1449106771768,3,0,1,10,7,-9,-6,-6,1,0,5
1449106771768,3,0,1,-2,43,38,-11,-1,-1,-2,-2
1449106771769,0,0,1,-7,11,-7,-9,-5,-9,-9,-8
1449106771769,0,0,1,-2,-1,15,-8,-7,-7,-8,-5
1449106771770,2,0,1,-8,-25,-5,-15,-9,-10,-8,-6
1449106771770,2,0,1,1,-8,-27,7,11,9,7,-1
1449106771771,3,0,1,-9,10,3,-1,-8,-9,-10,-7
1449106771771,3,0,1,-2,-1,14,1,-4,-7,-7,-1
1449106771817,3,0,1,4,13,-37,-14,-6,1,8,5
1449106771817,3,0,1,3,-12,-3,11,4,0,0,0
1449106771818,0,0,1,6,-13,-11,-3,0,-3,-2,0
1449106771818,0,0,1,-7,3,5,3,7,8,4,3
1449106771819,0,0,1,-5,8,28,-12,4,2,0,-2
1449106771819,1,0,1,-13,8,6,-6,-7,-6,-6,-6
1449106771819,1,0,1,3,9,3,4,2,1,4,3
1449106771819,0,0,1,-2,-4,-10,-7,-7,-3,-2,-1
1449106771866,1,0,1,7,-14,-24,5,4,4,4,4
1449106771866,1,0,1,-5,-3,70,8,4,-4,-13,-7
1449106771867,2,0,1,-8,-10,8,18,7,-2,0,-2
1449106771867,2,0,1,8,-1,-35,6,-2,3,6,2
1449106771868,1,0,1,7,10,-2,3,-1,-3,0,2
1449106771868,1,0,1,7,2,33,-3,0,1,2,2
1449106771868,2,0,1,-3,-1,1,-5,-2,-3,-6,-5
1449106771868,2,0,1,2,-2,0,6,-1,1,8,6
1449106771915,3,0,1,4,-16,-10,-6,3,6,15,5
1449106771915,3,0,1,2,-8,-2,6,2,-2,-9,-5
1449106771916,0,0,1,-1,-2,37,-6,-10,-7,-9,-5
1449106771916,0,0,1,0,12,-20,4,3,3,1,-1
1449106771918,2,0,1,2,-12,-2,0,3,6,9,5
1449106771918,2,0,1,-2,10,-9,-2,-1,-7,-3,-4
1449106771918,1,0,1,-4,-1,-1,-3,1,-2,-9,-6
1449106771918,1,0,1,-1,-7,-18,-3,-1,0,4,5
1449106771963,3,0,1,-1,-3,-28,-7,-9,-4,-4,-2
1449106771963,3,0,1,-1,-8,17,9,1,1,0,-1
1449106771965,0,0,1,-5,-19,8,-11,-9,-4,-2,-4
1449106771965,2,0,1,-13,-15,-24,-17,-16,-9,-8,-8
1449106771965,2,0,1,1,-4,-19,-2,8,1,-2,0
1449106771965,0,0,1,5,-11,-17,7,6,-2,-3,1
1449106771966,3,0,1,6,-1,-1,1,1,6,7,3
1449106771966,3,0,1,-5,3,20,-11,-8,-9,-9,-6
1449106772012,0,0,1,2,-9,7,13,10,4,4,4
1449106772012,0,0,1,3,15,6,3,0,2,4,2
1449106772013,1,0,1,-1,7,-3,-2,-3,0,2,0
1449106772013,1,0,1,-3,16,-37,-3,-1,-2,-3,0
1449106772014,3,0,1,-9,-15,-15,-3,-3,-5,-8,-4
1449106772014,3,0,1,12,20,22,1,0,5,6,4
1449106772015,0,0,1,-5,4,0,-1,-6,0,6,0
1449106772015,0,0,1,3,9,-8,-8,-1,1,1,0
1449106772061,1,0,1,0,21,38,15,-1,-7,-6,-1
1449106772061,1,0,1,-2,-7,-12,-6,1,-1,0,-2
1449106772062,2,0,1,-2,-4,-6,6,-2,-4,-2,-3
1449106772062,2,0,1,0,4,-15,-23,-14,-7,-6,0
1449106772063,1,0,1,-8,-17,-19,-13,-15,-11,-5,-3
1449106772063,0,0,1,1,5,7,-6,-4,-6,-6,-1
1449106772063,1,0,1,-3,3,-14,-3,0,-5,-10,-7
1449106772063,0,0,1,4,-12,-20,4,7,5,0,-1
1449106772110,2,0,1,0,4,8,3,1,-1,-3,-3
1449106772110,2,0,1,3,-1,39,17,3,4,1,1
1449106772110,3,0,1,0,-14,-31,-11,-7,-4,3,2
1449106772110,3,0,1,3,-3,5,3,1,3,1,1
1449106772111,1,0,1,3,-28,-46,-4,11,8,7,7
1449106772111,1,0,1,-10,33,80,21,-5,-7,-5,-6
1449106772112,2,0,1,-7,-11,-27,-10,-7,-2,-1,-3
1449106772112,2,0,1,0,-18,-1,4,-3,-3,-1,0
1449106772158,3,0,1,-3,5,14,10,1,-1,1,-3
1449106772158,3,0,1,14,-12,-31,-16,5,1,-4,0
1449106772160,0,0,1,1,-4,-11,-1,-2,-6,-2,-2
1449106772160,2,0,1,5,-2,-13,4,1,1,-3,2
1449106772160,0,0,1,-6,-6,-1,10,7,12,21,15
1449106772160,2,0,1,-1,0,6,-1,-1,-5,-5,-8
1449106772161,3,0,1,8,-8,31,-7,-8,-8,-6,2
1449106772161,3,0,1,-1,0,4,-5,-5,-1,-1,1
1449106772207,0,0,1,-1,2,38,18,15,2,1,0
1449106772207,0,0,1,-13,-7,-32,-17,-6,-3,-3,-9
1449106772208,1,0,1,1,-6,2,0,-4,-2,-1,2
1449106772208,1,0,1,-2,-19,-23,-5,-8,-5,-2,-1
1449106772256,3,0,1,14,-5,19,2,10,10,14,13
1449106772256,3,0,1,-17,3,-31,-20,2,-2,-7,-7
1449106772257,0,0,1,-4,-7,-12,-29,-7,-3,-1,2
1449106772257,0,0,1,-1,-16,20,27,1,-2,-1,-1
1449106772258,1,0,1,-14,-34,-31,-13,-11,-9,-12,-9
1449106772258,1,0,1,-4,-10,7,11,4,-4,-5,-8
1449106772259,2,0,1,0,-19,21,43,9,4,10,6
1449106772259,2,0,1,12,22,2,-28,-9,-8,-8,-3
1449106772305,3,0,1,-13,-21,-18,-2,-8,-11,-16,-10
1449106772305,0,0,1,-3,2,-23,-13,-3,-5,-10,-8
1449106772305,3,0,1,2,4,6,9,1,10,18,10
1449106772305,0,0,1,0,-1,4,-11,1,1,1,0
1449106772306,0,0,1,-5,24,70,13,6,3,1,-1
1449106772306,0,0,1,-2,-17,-17,-6,-3,-2,-1,-1
1449106772307,1,0,1,10,19,22,-19,-11,-1,0,2
1449106772307,1,0,1,6,-7,7,18,13,5,0,1
1449106772353,2,0,1,-10,-18,-58,-8,-5,-4,-3,-7
1449106772353,2,0,1,5,14,19,0,-9,-5,-2,-2
1449106772354,3,0,1,-3,-5,5,-19,-11,-4,1,1
1449106772354,3,0,1,-4,-17,12,21,14,11,5,-2
1449106772355,1,0,1,1,21,-5,-4,-13,-10,-7,-1
1449106772355,1,0,1,4,-3,-19,-4,-1,2,0,3
1449106772356,2,0,1,9,1,-33,-6,4,4,1,4
1449106772356,2,0,1,-6,1,24,7,5,5,3,-3
1449106772402,3,0,1,-8,7,41,-1,-2,-2,5,0
1449106772402,3,0,1,-2,-1,-19,-4,-2,-1,-2,-2
1449106772404,0,0,1,4,8,-5,-2,-2,0,0,2
1449106772404,2,0,1,-6,-12,-24,-1,4,0,-5,-3
1449106772404,0,0,1,4,13,2,-5,1,1,1,2
1449106772404,2,0,1,6,4,11,9,0,3,4,4
1449106772405,3,0,1,3,10,18,-1,-7,-6,-3,-1
1449106772405,3,0,1,-1,6,-7,-5,0,6,4,-1
1449106772451,0,0,1,4,-7,-23,4,7,2,2,2
1449106772451,0,0,1,-4,4,24,-5,-7,-7,-8,-7
1449106772453,1,0,1,4,-6,-1,-6,-4,1,-2,1
1449106772453,1,0,1,-5,13,18,-9,-4,-1,7,6
1449106772454,3,0,1,-2,-16,-19,-7,-1,-5,-4,-3
1449106772454,3,0,1,5,13,-10,7,-4,-1,-2,1
1449106772454,0,0,1,-13,4,-1,-16,-5,-3,-3,-7
1449106772454,0,0,1,3,9,13,-3,-3,-1,-1,1
1449106772500,1,0,1,-5,8,34,25,-1,-7,-10,-6
1449106772500,1,0,1,0,-23,-25,-12,0,1,-1,-3
1449106772501,2,0,1,8,-11,-12,-5,-5,-2,0,1
1449106772501,2,0,1,-2,-10,-3,7,6,5,5,1
1449106772502,0,0,1,1,-14,-14,7,-2,-4,1,1
1449106772502,0,0,1,-3,5,2,-9,-3,0,-5,-7
1449106772503,1,0,1,1,-11,-32,-3,-1,0,5,5
1449106772503,1,0,1,-2,10,32,-6,-2,1,0,-2
1449106772548,2,0,1,0,-7,40,10,9,4,0,-2
1449106772548,2,0,1,2,3,10,8,10,7,7,3
1449106772549,3,0,1,-3,22,52,4,-8,-8,-7,-6
1449106772549,3,0,1,7,-18,-36,7,2,-3,-4,1
1449106772550,1,0,1,0,1,2,-5,-1,2,0,-2
1449106772550,1,0,1,-1,-14,2,5,6,2,-4,0
1449106772551,2,0,1,6,-5,14,1,-3,2,4,7
1449106772551,2,0,1,-1,-10,0,4,4,-1,-1,-3
1449106772597,3,0,1,-6,-13,-27,-12,-2,-5,-4,-5
1449106772597,3,0,1,-3,-3,0,2,-6,-5,-4,-5
1449106772598,0,0,1,-6,2,25,0,-6,-8,-7,-6
1449106772598,0,0,1,-3,-4,-12,0,-4,-1,0,1
1449106772599,1,0,1,-8,-9,-14,-7,-1,1,0,-3
1449106772599,1,0,1,-1,-22,-42,-2,6,3,4,1
1449106772600,2,0,1,-2,6,24,8,0,-6,-8,-5
1449106772600,2,0,1,-3,1,37,-5,-7,-8,-3,-2
1449106772646,0,0,1,-4,-9,-7,-1,-1,1,3,1
1449106772646,3,0,1,5,-7,-34,0,4,0,1,1
1449106772646,0,0,1,-2,-15,-18,-2,7,3,-4,-3
1449106772646,3,0,1,-3,-1,8,13,4,5,1,-1
1449106772647,2,0,1,6,4,40,9,3,5,9,7
1449106772647,2,0,1,5,-10,-30,-3,-1,-1,-1,2
1449106772648,3,0,1,-2,-23,-28,-2,2,3,6,-1
1449106772648,3,0,1,-4,12,41,1,-3,2,-3,-4
1449106772695,0,0,2,0,-8,-12,6,8,0,-2,-3
1449106772695,1,0,2,3,0,-17,-6,-5,0,0,3
1449106772695,1,0,2,-5,4,-7,-2,-3,-8,-8,-5
1449106772695,0,0,2,6,-9,-17,-6,-5,-3,-3,5
1449106772696,3,0,2,-2,-11,4,-9,-9,-4,1,-1
1449106772696,3,0,2,3,-5,-25,-5,-2,2,3,2
1449106772698,0,0,2,-1,21,17,0,1,-3,-6,-3
1449106772698,0,0,2,2,5,10,7,3,3,7,5
1449106772743,1,0,2,-5,-22,13,-6,-3,5,4,-2
1449106772743,1,0,2,1,-24,-34,-13,2,1,-2,-2
1449106772744,2,0,2,-10,12,-1,1,-2,0,2,1
1449106772744,2,0,2,-2,-12,-28,-8,-8,-4,-9,-5
1449106772745,0,0,2,2,-16,21,-2,-3,-1,-2,0
1449106772745,0,0,2,-2,18,-8,-9,-2,-3,-5,-5
1449106772746,1,0,2,5,24,4,6,4,0,-3,0
1449106772746,1,0,2,-2,-13,24,4,-1,-1,4,3
1449106772792,2,0,2,0,-8,-18,0,3,8,2,-1
1449106772792,2,0,2,6,6,1,7,6,5,0,2
1449106772794,3,0,2,5,13,12,4,-1,2,8,5
1449106772794,3,0,2,-3,13,-14,0,1,0,-1,-1
1449106772795,2,0,2,4,-4,-18,-3,-5,2,7,5
1449106772795,1,0,2,0,-3,-5,5,13,9,5,-3
1449106772795,2,0,2,-2,-6,-2,2,9,3,1,1
1449106772795,1,0,2,2,26,23,-4,1,0,-2,0
1449106772841,3,0,2,5,10,27,3,-4,-3,-3,1
1449106772841,0,0,2,-1,-20,-3,-5,-11,-7,-4,-3
1449106772841,3,0,2,-6,12,-18,-9,-9,-9,-6,-4
1449106772841,0,0,2,-2,6,-6,-4,0,-1,1,-1
1449106772842,2,0,2,-2,-23,-5,-3,-1,-1,-1,-3
1449106772842,2,0,2,3,10,19,3,3,6,11,8
1449106772843,3,0,2,1,-9,2,5,3,0,-2,-1
1449106772843,3,0,2,1,2,5,-3,-5,-8,-7,-4
1449106772889,0,0,2,-7,-6,-1,-3,-2,-4,-3,-4
1449106772889,0,0,2,1,8,-10,-4,-5,4,3,0
1449106772890,1,0,2,4,-8,8,5,5,4,7,5
1449106772890,1,0,2,7,8,7,2,7,6,-2,0
1449106772891,3,0,2,-3,10,22,5,0,-4,-2,1
1449106772891,3,0,2,-1,-19,-12,-9,-7,-2,-11,-4
1449106772892,0,0,2,7,-16,-3,4,3,-2,-2,1
1449106772892,0,0,2,3,16,27,2,2,0,1,-1
1449106772938,1,0,2,-2,2,-9,1,-4,0,4,-7
1449106772938,1,0,2,-2,-13,-11,-6,-9,-19,-4,-1
1449106772939,2,0,2,1,3,-4,-2,2,9,12,13
1449106772939,0,0,2,-1,11,10,-4,-8,-25,-23,-8
1449106772939,0,0,2,0,-4,-5,-2,-5,13,17,3
1449106772939,2,0,2,-1,-30,-7,0,1,-5,-11,1
1449106772941,1,0,2,-7,-9,-9,-1,2,0,5,4
1449106772941,1,0,2,-6,-14,-2,-5,-2,-8,-10,-1
1449106772987,2,0,2,0,-18,6,7,0,1,-2,-1
1449106772987,2,0,2,-8,37,-38,-17,-5,-4,-7,-5
1449106772988,3,0,2,-16,-16,-5,0,2,6,7,4
1449106772988,0,0,2,10,-13,-9,-2,2,7,4,7
1449106772988,3,0,2,8,0,11,0,-6,-1,0,-9
1449106772988,0,0,2,8,-13,35,3,-4,-15,-2,6
1449106772990,1,0,2,-35,-4,-37,-10,0,-6,-16,-21
1449106772990,1,0,2,-3,3,1,-4,-7,0,0,-7
1449106773036,3,0,2,-1,0,12,-2,-11,-5,22,17
1449106773036,2,0,2,-5,5,-3,-5,-3,10,-7,-7
1449106773036,3,0,2,14,-28,13,9,14,26,3,11
1449106773036,2,0,2,0,-16,11,5,0,-24,-35,-24
1449106773037,1,0,2,-8,-19,-9,0,-1,-18,-8,-6
1449106773037,1,0,2,3,-39,18,13,11,-22,-19,-10
1449106773038,2,0,2,-7,0,-10,-4,-4,1,4,-2
1449106773038,2,0,2,-7,-2,2,-5,-7,-21,-9,7
1449106773085,0,0,2,12,-5,5,-2,3,-4,-7,-4
1449106773085,3,0,2,-1,2,0,-2,-2,11,3,1
1449106773085,3,0,2,8,-15,3,2,1,8,11,2
1449106773085,0,0,2,7,11,0,3,-1,5,9,7
1449106773086,2,0,2,-9,-12,-9,-5,-8,-14,-9,-11
1449106773086,2,0,2,1,-10,-17,-4,5,9,10,2
1449106773087,3,0,2,4,32,-3,-5,-7,-15,-5,-1
1449106773087,3,0,2,6,2,7,3,3,5,1,0
1449106773133,0,0,2,2,16,0,2,6,8,12,5
1449106773133,0,0,2,-5,14,-2,-1,-1,1,-1,-6
1449106773134,1,0,2,-6,-1,-4,-1,-6,-1,-4,-4
1449106773134,1,0,2,-1,10,-8,-4,-3,-7,-10,-1
1449106773135,3,0,2,-8,-15,4,-8,-8,-3,-1,2
1449106773135,3,0,2,-8,5,-15,-8,-5,-4,-4,-7
1449106773136,0,0,2,11,-3,1,4,2,2,3,-2
1449106773136,0,0,2,-22,6,-7,-11,-10,-8,-9,-7
1449106773182,1,0,2,10,8,-7,2,3,7,5,5
1449106773182,1,0,2,-2,-1,-1,-2,-5,-14,-15,-3
1449106773183,2,0,2,-11,-9,-4,5,4,4,5,0
1449106773183,0,0,2,-1,-4,18,3,-2,-8,-8,-3
1449106773183,2,0,2,13,8,6,0,-1,2,-1,1
1449106773183,0,0,2,-10,-36,-32,-9,-5,1,1,1
1449106773185,1,0,2,0,3,4,-2,-4,-5,-7,-2
1449106773185,1,0,2,3,-3,-32,-13,-2,1,2,-1
1449106773231,2,0,2,-7,-28,-10,-6,-5,-9,-10,-4
1449106773231,3,0,2,8,3,18,16,8,8,5,-2
1449106773231,3,0,2,0,-6,-1,-5,-5,-5,-8,-4
1449106773231,2,0,2,-6,11,21,14,11,11,14,4
1449106773232,1,0,2,-1,0,12,10,7,4,7,1
1449106773232,1,0,2,-6,-20,-6,5,7,3,-1,-5
1449106773233,2,0,2,-8,6,-4,-7,-8,-8,-7,-9
1449106773233,2,0,2,3,3,8,-7,-9,-12,-11,2
1449106773280,0,0,2,-5,-15,3,10,13,11,6,-1
1449106773280,3,0,2,2,-5,-3,2,0,1,2,0
1449106773280,0,0,2,-5,-14,-14,-6,-1,-11,-5,-7
1449106773280,3,0,2,5,3,2,-10,-11,-3,1,3
1449106773281,2,0,2,0,3,3,3,3,5,3,1
1449106773281,2,0,2,1,-2,-4,-6,-11,-8,-7,-5
1449106773282,3,0,2,-1,-1,-2,-1,0,-2,1,-1
1449106773282,3,0,2,2,8,1,0,0,1,2,2
1449106773328,0,0,2,-5,2,-18,5,3,7,6,-1
1449106773328,0,0,2,-1,-2,9,1,-3,-2,-5,-5
1449106773329,2,0,2,1,-1,-3,3,7,5,2,0
1449106773329,1,0,2,3,9,26,-1,-8,-3,0,-1
1449106773329,2,0,2,-6,-15,-5,-15,-4,-2,1,0
1449106773329,1,0,2,-6,-14,-1,2,4,3,3,0
1449106773331,3,0,2,2,1,-15,-6,1,-2,-4,-1
1449106773331,3,0,2,3,14,-2,3,-2,-3,-3,0
1449106773377,0,0,2,2,-5,1,-2,-1,-1,-2,-3
1449106773377,0,0,2,-5,-5,5,7,-4,-4,-2,-1
1449106773378,1,0,2,-6,-3,17,18,11,5,2,1
1449106773378,3,0,2,0,-3,-12,-15,-3,-4,-2,0
1449106773378,3,0,2,-7,-7,4,0,-2,-2,-4,-3
1449106773378,1,0,2,-4,-17,-16,-8,-6,1,0,1
1449106773379,0,0,2,-1,2,9,6,0,-2,-5,-3
1449106773379,0,0,2,-6,-5,-8,-3,-4,-3,5,-1
1449106773426,2,0,2,-4,5,20,3,1,2,1,-3
1449106773426,1,0,2,7,0,4,7,5,1,1,2
1449106773426,1,0,2,5,2,-11,-3,2,1,1,-2
1449106773426,2,0,2,-5,-4,10,-3,-1,-2,0,0
1449106773427,0,0,2,2,10,-1,3,-4,-3,-2,3
1449106773427,0,0,2,-2,-6,-5,-4,-2,2,-1,-6
1449106773428,1,0,2,-2,-2,9,5,3,3,4,-1
1449106773428,1,0,2,-3,-2,-4,-11,1,-3,-3,0
1449106773475,3,0,2,-1,18,-3,-3,4,0,-1,-1
1449106773475,3,0,2,-2,-9,-4,5,-1,0,1,-1
1449106773475,2,0,2,3,6,6,1,-7,-7,-3,0
1449106773475,2,0,2,-4,-11,2,1,-1,-2,0,-2
1449106773476,1,0,2,-3,-10,-7,-2,-10,-6,-2,0
1449106773476,1,0,2,-2,2,10,4,1,1,-2,-1
1449106773477,2,0,2,-2,3,7,-2,2,1,1,0
1449106773477,2,0,2,2,1,-1,-1,0,-1,-4,0
1449106773523,3,0,2,-2,-1,3,3,1,3,1,-1
1449106773523,3,0,2,-7,-9,0,4,-2,0,1,-3
1449106773524,0,0,2,1,-5,-8,-1,-2,-1,0,1
1449106773524,0,0,2,-2,-1,-11,-5,0,-2,-1,-2
1449106773525,2,0,2,-7,-11,-15,5,8,6,-1,-2
1449106773525,2,0,2,2,3,5,1,4,2,2,0
1449106773526,3,0,2,-1,-5,2,2,1,-1,-1,-2
1449106773526,3,0,2,5,11,2,1,-6,-4,-1,3
1449106773576,1,0,2,-3,-10,0,-2,-2,-3,-3,-2
1449106773576,1,0,2,2,3,22,3,4,0,1,1
1449106773576,0,0,2,1,6,0,-3,-2,0,-2,0
1449106773576,0,0,2,-3,-12,-20,-4,-1,-1,-1,-4
1449106773577,3,0,2,-2,-4,1,4,5,1,-1,0
1449106773577,0,0,2,-3,-4,-15,-3,3,6,2,-1
1449106773577,0,0,2,1,2,2,4,2,0,0,0
1449106773577,3,0,2,-1,0,-12,-6,-8,-4,-3,-3
1449106773621,1,0,2,-1,-1,21,5,0,-3,-1,-1
1449106773621,1,0,2,2,10,2,-3,-1,-3,-2,-1
1449106773622,0,0,2,-5,-6,0,-3,-5,-4,-2,-2
1449106773622,2,0,2,0,0,1,-2,0,-1,-2,2
1449106773622,2,0,2,-1,-3,-5,0,-4,-2,-3,-1
1449106773622,0,0,2,7,1,-2,-1,-5,-5,-1,11
1449106773623,1,0,2,-2,2,2,-2,1,3,-1,2
1449106773623,1,0,2,-2,-4,-8,-4,2,-2,-1,-5
1449106773670,2,0,2,0,0,5,6,-2,1,0,-3
1449106773670,2,0,2,3,-1,2,5,7,3,1,2
1449106773718,3,0,2,-5,-27,-10,0,1,0,1,4
1449106773718,3,0,2,3,18,-6,-6,-2,2,-1,0
1449106773719,0,0,2,2,1,2,6,-4,-5,-2,1
1449106773719,0,0,2,-4,-2,-9,-7,-6,-3,-3,-4
1449106773720,1,0,2,-2,-1,-2,-4,1,0,-2,-6
1449106773720,1,0,2,2,6,-1,3,3,4,1,1
1449106773721,2,0,2,-3,-7,-2,-2,-7,-4,-2,-2
1449106773721,2,0,2,-2,-1,-3,2,4,2,3,0
1449106773767,3,0,2,-1,-1,-5,-6,-3,-3,-5,-1
1449106773767,3,0,2,-1,-1,-5,-1,0,-1,0,1
1449106773769,1,0,2,2,9,6,-1,0,-1,0,3
1449106773769,1,0,2,-3,-14,-8,2,0,2,0,0
1449106773770,2,0,2,-2,-3,-3,-7,-7,-4,-3,-1
1449106773770,2,0,2,-2,-8,1,-4,-4,-4,-3,-2
1449106773771,2,0,2,0,3,0,-2,-2,1,-1,1
1449106773771,2,0,2,1,2,4,-3,-2,-2,-2,-3
1449106773816,3,0,2,3,4,-3,1,2,-2,-2,1
1449106773816,3,0,2,-3,-6,3,1,-5,-2,-2,-2
1449106773817,0,0,2,1,7,5,1,3,2,0,-1
1449106773817,0,0,2,-3,-3,-4,2,4,2,0,-2
1449106773818,0,0,2,-5,-11,6,-1,-1,0,-2,-6
1449106773818,3,0,2,-7,-10,-13,-5,0,-6,-3,-5
1449106773818,3,0,2,6,11,7,0,-7,-4,0,8
1449106773818,0,0,2,4,1,-16,-1,1,3,1,6
1449106773865,1,0,2,2,20,5,-4,-4,-4,-5,-3
1449106773865,2,0,2,0,-3,-19,-8,-1,-2,0,-1
1449106773865,1,0,2,-3,-12,-3,-2,-1,1,0,-2
1449106773865,2,0,2,0,2,9,6,1,3,2,-4
1449106773866,0,0,2,0,3,-10,-5,-5,-5,-6,-4
1449106773866,0,0,2,-12,-6,33,3,-7,-5,-5,-6
1449106773867,1,0,2,-2,-1,-26,-20,-5,-3,-2,-3
1449106773867,1,0,2,0,-5,-7,-2,0,1,1,-1
1449106773913,2,0,2,4,5,6,0,3,1,3,3
1449106773913,2,0,2,4,6,7,13,7,-1,0,3
1449106773914,3,0,2,-4,-8,10,7,-2,1,0,-4
1449106773914,3,0,2,1,1,-4,-6,-1,-2,-2,-1
1449106773915,1,0,2,3,-1,-20,1,4,5,3,0
1449106773915,1,0,2,-1,-8,-5,-2,-4,-5,-1,-1
1449106773916,2,0,2,-8,-15,-7,-8,-4,-1,-1,-6
1449106773916,2,0,2,2,1,27,9,6,0,2,7
1449106773962,3,0,2,0,0,-5,-13,-4,-4,-1,0
1449106773962,3,0,2,-9,-18,7,8,-1,-2,-5,-6
1449106773963,0,0,2,8,20,-3,-4,-1,-2,-2,1
1449106773963,0,0,2,6,5,-11,5,5,5,3,0
1449106773964,2,0,2,2,1,-1,2,-1,0,2,1
1449106773964,2,0,2,3,-3,-13,0,0,3,0,1
1449106773965,3,0,2,7,27,32,19,-2,-2,-1,1
1449106773965,3,0,2,1,5,-11,-11,0,-2,-4,-2
1449106774011,0,0,2,-3,0,-11,-6,2,4,2,0
1449106774011,0,0,2,-1,-9,-10,-11,-8,-5,-7,0
1449106774012,1,0,2,-5,-5,-7,0,-6,-7,-5,-4
1449106774012,1,0,2,-2,-1,-7,-4,-4,-8,-7,-3
1449106774013,3,0,2,-6,-11,3,-5,-8,-7,8,0
1449106774013,2,0,2,-4,-19,-17,1,6,3,3,0
1449106774013,2,0,2,-3,-6,7,-4,1,18,-5,3
1449106774013,3,0,2,2,2,8,6,9,3,1,3
1449106774060,0,0,2,5,26,21,11,0,-1,1,0
1449106774060,0,0,2,-4,-6,-2,-1,-5,-7,-4,-8
1449106774061,1,0,2,31,3,10,11,9,8,8,11
1449106774061,3,0,2,3,18,3,-6,-10,-11,-4,1
1449106774061,1,0,2,-35,-41,-4,-8,-6,-12,-13,-9
1449106774061,3,0,2,11,9,6,13,11,13,8,6
1449106774062,0,0,2,-2,6,8,10,5,1,1,17
1449106774062,0,0,2,-1,-12,-9,-13,-7,-6,-2,-5
1449106774108,1,0,2,-8,-11,-6,-7,-5,-7,-9,-8
1449106774108,1,0,2,-3,0,-9,-1,2,10,5,2
1449106774109,2,0,2,-4,-6,-3,-4,-6,-3,4,-4
1449106774109,2,0,2,6,2,3,-5,-6,-18,-16,-7
1449106774110,0,0,2,-10,-3,19,0,-3,-8,-4,-3
1449106774110,0,0,2,13,-1,-5,-1,5,8,3,17
1449106774111,1,0,2,-7,-4,1,-10,-9,-11,-5,-4
1449106774111,1,0,2,2,-8,-20,-1,-2,-14,-9,4
1449106774157,2,0,2,-6,-10,1,2,8,12,7,-9
1449106774157,2,0,2,4,4,13,5,5,6,-2,-9
1449106774158,3,0,2,3,3,-4,-6,-6,-13,-6,-2
1449106774158,3,0,2,-2,-2,-6,-1,2,1,1,-2
1449106774159,1,0,2,5,2,6,-1,-3,-2,2,1
1449106774159,1,0,2,-1,-3,1,2,5,8,3,0
1449106774160,2,0,2,2,2,-3,0,1,-4,-4,3
1449106774160,2,0,2,-4,-7,-4,-2,1,4,2,-4
1449106774206,3,0,2,-3,-2,-3,-3,-7,-3,-2,-6
1449106774206,3,0,2,4,4,9,2,2,3,4,4
1449106774207,0,0,2,-17,-1,-6,-7,-10,-2,-4,-11
1449106774207,0,0,2,-7,-6,-7,1,0,-8,-8,1
1449106774208,2,0,2,2,-6,0,-2,-6,-12,-6,0
1449106774208,3,0,2,-18,-15,-5,0,-4,-6,-4,-14
1449106774208,2,0,2,-6,-1,-2,3,7,0,1,-3
1449106774208,3,0,2,11,6,6,3,15,27,16,16
1449106774255,0,0,2,5,-3,-2,-3,-2,-7,-8,0
1449106774255,0,0,2,8,-1,-5,-2,0,11,8,2
1449106774256,1,0,2,-6,-2,-2,-5,-4,-5,-2,3
1449106774256,3,0,2,-1,-1,2,2,0,-6,-1,-2
1449106774256,3,0,2,2,-4,3,2,2,-2,-1,-1
1449106774256,1,0,2,-4,5,2,-2,-11,-16,-7,-6
1449106774257,0,0,2,1,3,1,-1,-3,-1,0,-3
1449106774257,0,0,2,-5,-14,-9,-5,-4,-6,-6,-6
1449106774303,1,0,2,-4,5,-2,-9,-6,4,0,2
1449106774303,1,0,2,-12,-12,-3,4,0,-8,-2,0
1449106774305,2,0,2,8,1,-1,1,-2,-10,-6,0
1449106774305,0,0,2,4,-1,-1,-1,-2,-4,-1,-7
1449106774305,2,0,2,-2,-4,2,7,7,9,8,-1
1449106774305,0,0,2,2,3,0,-4,-3,1,4,4
1449106774306,1,0,2,-5,1,0,3,2,8,1,-2
1449106774306,1,0,2,3,3,-2,0,1,-3,-4,1
1449106774352,2,0,2,-2,6,0,-3,-3,-10,-3,-5
1449106774352,2,0,2,-1,-3,-1,2,0,4,1,-2
1449106774353,3,0,2,2,5,5,5,14,21,10,6
1449106774353,3,0,2,-5,8,-2,1,0,0,-2,-1
1449106774354,1,0,2,5,-10,1,-7,-11,-16,-5,0
1449106774354,2,0,2,4,0,3,6,8,2,-2,-1
1449106774354,1,0,2,-6,-2,-5,0,0,2,4,-5
1449106774354,2,0,2,-8,-14,-6,-4,-6,1,-2,-6
1449106774401,3,0,2,-4,-1,-4,0,-1,-2,-3,-4
1449106774401,0,0,2,0,1,2,2,5,4,0,4
1449106774401,3,0,2,1,-4,-2,-8,-10,-11,-8,2
1449106774401,0,0,2,-2,-2,-1,-1,-2,2,1,-3
1449106774402,1,0,2,-3,-2,-3,-4,-9,-8,-6,-3
1449106774402,1,0,2,0,-12,0,4,11,6,0,2
1449106774403,2,0,2,-3,-2,2,1,0,2,1,-1
1449106774403,2,0,2,-1,-5,-3,-6,-7,-13,-6,-1
1449106774450,0,0,2,-1,-6,-4,-5,-8,-9,-3,0
1449106774450,3,0,2,-1,2,0,1,6,9,10,0
1449106774450,0,0,2,0,-1,-1,-2,-4,2,0,-1
1449106774450,3,0,2,1,-8,2,3,1,-4,-6,-4
1449106774451,2,0,2,0,-11,-3,-4,-2,-5,-3,1
1449106774451,2,0,2,-4,-9,-3,-3,-4,1,0,-3
1449106774452,3,0,2,2,0,-1,-2,-3,4,4,-1
1449106774452,3,0,2,-3,-4,2,2,6,9,4,-2
1449106774498,0,0,2,0,-4,-2,-4,-6,-5,-3,-3
1449106774498,0,0,2,-2,0,-1,0,2,0,-2,-1
1449106774499,1,0,2,0,-6,2,4,3,2,-1,-1
1449106774499,1,0,2,1,-1,0,-2,-2,-3,-5,0
1449106774500,3,0,2,0,-10,-3,-5,-5,-1,1,-1
1449106774500,3,0,2,-1,-11,-6,-6,-10,-16,-11,1
1449106774501,0,0,2,2,-3,1,-2,-2,4,4,1
1449106774501,0,0,2,0,-2,0,3,8,6,1,-4
1449106774549,1,0,2,-2,1,-2,-5,-3,-3,-3,6
1449106774549,1,0,2,-3,-7,-3,-2,-6,-9,-9,-10
1449106774550,0,0,2,-3,-6,0,-1,2,-19,-13,-4
1449106774550,2,0,2,-2,-9,1,2,1,3,4,0
1449106774550,2,0,2,1,1,-1,-1,0,-2,0,-1
1449106774550,0,0,2,-1,-3,-1,-3,-6,11,0,-1
1449106774551,1,0,2,-3,-13,3,10,16,23,12,-1
1449106774551,1,0,2,5,-3,1,-1,-2,-7,-2,6
1449106774596,2,0,2,-2,-8,-3,-3,-8,-13,-6,1
1449106774596,2,0,2,-1,-2,0,0,1,8,5,-3
1449106774597,1,0,2,2,-8,-1,0,2,-1,-4,2
1449106774597,3,0,2,2,-2,-2,-4,-7,-37,-20,3
1449106774597,3,0,2,0,-3,-2,-2,-3,9,3,-1
1449106774597,1,0,2,0,-1,0,0,0,6,8,3
1449106774598,2,0,2,0,-4,-3,-1,-4,-10,-5,-2
1449106774598,2,0,2,-1,3,-2,-8,-6,-10,-11,-5
1449106774645,0,0,2,-3,1,-2,-1,0,6,4,-2
1449106774645,3,0,2,-3,3,-4,-2,-2,3,3,-4
1449106774645,3,0,2,-2,1,0,2,1,4,9,6
1449106774645,0,0,2,1,4,-1,-1,0,-7,-5,3
1449106774646,2,0,2,1,12,-3,0,0,9,7,0
1449106774646,2,0,2,-7,9,2,1,1,-1,0,-7
1449106774647,3,0,2,-1,-1,-1,-2,-1,-9,-8,2
1449106774647,3,0,2,-8,-9,1,-1,-3,-1,-2,-7
1449106774693,0,0,2,-2,-2,-2,-6,-5,-3,-7,-12
1449106774693,0,0,2,5,-2,1,3,5,1,5,2
1449106774694,1,0,2,-5,0,-2,2,5,-1,0,-5
1449106774694,1,0,2,2,3,-2,-3,-3,-10,-9,1
1449106774695,3,0,2,-1,1,1,-2,0,1,1,-3
1449106774695,3,0,2,2,0,-1,-4,-4,0,-2,-1
1449106774696,0,0,2,-1,1,-3,-1,-4,-1,-3,-7
1449106774696,0,0,2,-2,-1,-3,-1,-5,-5,0,9
1449106774743,1,0,2,-2,-4,0,0,0,3,1,-2
1449106774743,2,0,2,0,-10,-3,0,5,1,-3,6
1449106774743,2,0,2,0,-3,0,2,-1,1,0,-6
1449106774743,1,0,2,0,5,-2,-1,-2,-2,0,-1
1449106774744,3,0,2,-1,0,-3,-4,-7,-11,-6,-1
1449106774744,3,0,2,0,-12,-3,-3,-2,8,0,2
1449106774745,0,0,2,0,-10,1,1,2,-5,-3,0
1449106774745,0,0,2,4,-1,0,-3,-3,5,6,-1
1449106774791,1,0,2,-5,-15,-4,-7,-8,-22,-14,-15
1449106774791,1,0,2,4,1,1,-2,-3,-4,0,4
1449106774793,0,0,2,1,-6,0,-4,-7,1,5,7
1449106774793,2,0,2,-5,-7,1,4,8,7,-3,-12
1449106774793,0,0,2,1,-4,-4,-4,-5,-14,-5,-1
1449106774793,2,0,2,1,12,0,0,-1,-4,4,9
1449106774794,1,0,2,-4,-4,0,0,-3,-2,-5,-11
1449106774794,1,0,2,0,-3,1,-4,3,5,4,1
1449106774840,2,0,2,0,3,-1,-2,-4,-11,-6,0
1449106774840,2,0,2,1,-1,2,5,9,12,9,9
1449106774841,1,0,2,0,-2,-3,-2,0,-3,2,1
1449106774841,3,0,2,3,-7,-1,0,0,2,0,1
1449106774841,1,0,2,-2,-3,2,0,-1,12,9,0
1449106774841,3,0,2,-1,-3,-2,0,-2,0,-1,4
1449106774842,2,0,2,2,-4,-1,0,-4,-10,-4,-6
1449106774842,2,0,2,1,-1,0,0,-2,-11,7,16
1449106774888,3,0,2,1,-8,0,3,6,17,-1,0
1449106774888,3,0,2,0,0,-3,-2,-2,2,-3,-4
1449106774889,0,0,2,2,2,0,-5,-1,3,5,1
1449106774889,0,0,2,-3,2,-1,-4,-3,-7,-10,-3
1449106774890,2,0,2,-2,-11,-1,-2,0,6,6,9
1449106774890,2,0,2,-1,-4,-2,1,1,-7,-9,-7
1449106774891,3,0,2,-1,-4,1,2,1,-1,-3,1
1449106774891,3,0,2,0,-5,-2,-2,2,2,2,1
1449106774937,0,0,2,5,-10,-1,3,-1,-11,-9,-4
1449106774937,0,0,2,0,-1,-2,-6,-9,-3,-3,-6
1449106774938,3,0,2,-7,-3,-2,-4,-6,-8,-6,-12
1449106774938,1,0,2,-4,-8,-2,3,-2,0,0,-4
1449106774938,3,0,2,2,-1,1,1,5,0,1,7
1449106774938,1,0,2,2,2,0,-1,-1,2,2,2
1449106774940,0,0,2,4,5,-2,-3,-7,-2,2,12
1449106774940,0,0,2,-4,-8,-1,1,2,8,-3,-15
1449106774986,1,0,2,2,-2,-2,0,1,0,6,17
1449106774986,1,0,2,-5,0,3,4,6,4,1,-4
1449106774986,2,0,2,3,4,0,-2,-1,-2,2,-4
1449106774986,2,0,2,-3,-6,0,-2,-3,-1,-2,-3
1449106774987,0,0,2,2,4,1,2,0,-2,-1,1
1449106774987,0,0,2,-6,-9,3,4,8,7,5,-4
1449106774988,1,0,2,1,5,-4,-4,-9,-11,-7,4
1449106774988,1,0,2,0,6,0,-2,-2,-2,-1,-7
1449106775035,2,0,2,-2,-1,0,0,0,2,4,0
1449106775035,2,0,2,-7,-1,-2,-3,-2,-5,-5,-8
1449106775035,3,0,2,0,3,1,3,2,8,1,-5
1449106775035,3,0,2,1,5,-1,-1,-2,-13,-8,0
1449106775036,1,0,2,0,-11,-4,-4,-3,1,-3,-7
1449106775036,1,0,2,0,-3,0,4,8,3,11,22
1449106775037,2,0,2,-2,-5,-1,-1,-4,-15,-8,-6
1449106775037,2,0,2,1,7,-1,1,5,21,13,9
1449106775083,3,0,2,-5,0,-1,5,3,-1,-7,-17
1449106775083,3,0,2,3,-2,-3,-2,-2,1,-3,-6
1449106775084,0,0,2,-2,-5,-3,0,-2,-3,-4,-2
1449106775084,0,0,2,-3,-8,0,-2,-3,0,0,-1
1449106775085,1,0,2,-5,2,0,-2,-6,-9,-2,-1
1449106775085,1,0,2,-1,1,-1,-2,-1,5,5,1
1449106775086,2,0,2,1,-5,-1,1,-2,-5,0,5
1449106775086,2,0,2,-1,-4,0,1,2,-1,-5,-8
1449106775132,3,0,2,-3,-2,2,1,4,2,0,-7
1449106775132,3,0,2,-1,0,0,2,-1,-2,-2,1
1449106775133,2,0,2,-1,-3,-2,1,2,-7,-5,4
1449106775133,0,0,2,-1,1,-5,-8,-13,-8,-7,-1
1449106775133,2,0,2,0,0,1,-1,-1,6,4,4
1449106775133,0,0,2,-8,-9,0,-3,1,5,5,-1
1449106775135,3,0,2,0,-6,-3,-4,-8,-4,-3,0
1449106775135,3,0,2,-1,-3,-1,-2,-3,-8,0,-3
1449106775181,0,0,2,0,-1,-4,-3,-1,8,1,-3
1449106775181,0,0,2,2,-2,0,0,2,2,5,7
1449106775182,3,0,2,-3,-6,-1,-3,-5,-3,-1,-2
1449106775182,1,0,2,-7,-5,-2,0,-1,-10,-7,-18
1449106775182,1,0,2,5,-3,2,2,4,10,7,10
1449106775182,3,0,2,2,-11,-2,-5,-4,-10,2,5
1449106775183,0,0,2,0,-5,3,8,9,8,7,1
1449106775183,0,0,2,3,-6,-2,-4,-6,-6,-8,-1
1449106775230,1,0,2,1,-4,0,3,2,5,1,3
1449106775230,1,0,2,-5,-5,-3,-1,-1,-5,-5,-9
1449106775231,2,0,2,1,-6,0,3,3,4,6,3
1449106775231,2,0,2,3,-6,-3,-5,-5,-6,-13,-11
1449106775237,1,0,2,-9,-11,-3,-2,-1,-3,6,-20
1449106775237,0,0,2,0,-6,-1,-2,-2,12,12,10
1449106775237,1,0,2,6,1,-5,-11,-9,-6,-8,10
1449106775237,0,0,2,-3,3,-2,-1,0,-8,-7,-11
1449106775278,2,0,2,1,-5,3,8,13,5,-10,1
1449106775278,2,0,2,6,-4,-1,0,3,3,6,4
1449106775279,3,0,2,-6,-4,-2,-2,-2,-7,-4,-7
1449106775279,3,0,2,-3,0,-2,-2,-4,4,-1,1
1449106775280,1,0,2,2,0,-1,-5,-5,-4,-6,5
1449106775280,1,0,2,1,0,0,0,0,-3,-1,4
1449106775281,2,0,2,2,1,-1,0,-1,-2,-4,4
1449106775281,2,0,2,-4,0,-1,-3,-2,0,2,-4
1449106775327,3,0,2,-2,-2,-1,0,-2,-3,-2,3
1449106775327,3,0,2,-1,-2,0,-1,-1,-2,-1,-5
1449106775328,0,0,2,0,-3,-2,-1,-1,-3,-1,10
1449106775328,0,0,2,-3,-5,-2,-4,-2,-5,-3,-5
1449106775329,2,0,2,7,1,-1,-5,-2,6,5,4
1449106775329,2,0,2,-1,4,-4,0,-1,-7,-8,-5
1449106775330,3,0,2,0,-4,2,7,9,8,0,-1
1449106775330,3,0,2,5,-2,-3,-6,-8,-10,-2,5
1449106775376,0,0,2,-3,-2,0,-1,-3,4,3,-2
1449106775376,0,0,2,1,-3,-1,-2,-5,-2,0,1
1449106775377,1,0,2,-1,-2,-1,-4,-3,-1,-3,-3
1449106775377,1,0,2,0,1,-1,-5,-5,-4,-1,0
1449106775377,3,0,2,-4,-4,0,1,-1,-2,-1,1
1449106775377,3,0,2,1,9,0,2,0,2,-1,2
1449106775379,0,0,2,0,3,-5,-7,-6,-7,-5,-4
1449106775379,0,0,2,1,0,2,2,2,3,-1,-8
1449106775425,1,0,2,2,-3,-1,1,3,5,2,1
1449106775425,1,0,2,-2,-2,-1,-1,2,3,0,5
1449106775425,2,0,2,4,4,-1,-2,-8,-12,-8,4
1449106775425,2,0,2,-10,-3,-3,-5,-8,-6,-5,-12
1449106775426,3,0,2,2,8,4,5,9,12,8,-5
1449106775426,3,0,2,5,2,1,3,4,-10,0,13
1449106775427,0,0,2,1,-5,1,7,6,12,7,-6
1449106775427,0,0,2,-3,-8,-5,-5,-1,0,-1,4
1449106775473,1,0,2,-2,2,-1,-1,-1,-1,-3,-9
1449106775473,1,0,2,-2,-4,-5,-8,-9,-13,-12,-1
1449106775474,2,0,2,2,4,0,-1,-7,-13,-5,3
1449106775474,2,0,2,-13,-1,-1,4,6,1,-2,-10
1449106775475,0,0,2,1,4,-2,-4,-7,-5,-5,-1
1449106775475,0,0,2,-9,16,1,-4,-3,-4,-4,-4
1449106775476,1,0,2,1,-5,-14,1,1,-3,0,0
1449106775476,1,0,2,0,7,25,3,-1,-2,-1,4
1449106775522,2,0,2,1,-15,21,3,-1,-1,-8,-17
1449106775522,2,0,2,4,3,-47,-10,-5,1,5,6
1449106775524,3,0,2,11,-1,7,1,-1,-9,-14,1
1449106775524,1,0,2,-2,11,35,-12,-10,0,4,12
1449106775524,1,0,2,-3,-7,-26,-1,3,-13,-4,-7
1449106775524,3,0,2,-10,-10,-22,2,10,19,6,-18
1449106775525,2,0,2,1,-7,14,2,2,0,-1,8
1449106775525,2,0,2,2,-1,-1,2,4,3,0,-5
1449106775571,3,0,2,-2,-4,7,-2,-7,1,-2,2
1449106775571,3,0,2,-4,-6,-27,-7,-9,-7,-7,-8
1449106775572,0,0,2,-4,-9,-2,7,8,6,9,-4
1449106775572,0,0,2,-5,-8,-41,-4,2,0,-6,-1
1449106775573,2,0,2,-18,-13,51,0,-5,3,3,-15
1449106775573,2,0,2,16,-7,3,-1,-2,-1,1,8
1449106775574,3,0,2,-12,31,-14,1,0,-4,-14,-5
1449106775574,3,0,2,3,-23,-9,2,1,0,4,2
1449106775620,0,0,2,13,-19,-89,-4,12,31,28,36
1449106775620,0,0,2,-7,12,9,-3,-9,-15,-7,-8
1449106775621,3,0,2,-4,-22,-29,2,4,9,10,10
1449106775621,1,0,2,-4,-10,36,3,0,-6,-3,-8
1449106775621,1,0,2,2,19,27,-4,-2,4,-6,1
1449106775621,3,0,2,4,-5,-3,6,-5,-2,-1,-5
1449106775622,0,0,2,-7,-14,8,-1,8,10,0,-20
1449106775622,0,0,2,-7,-6,9,-7,-2,-10,-9,5
1449106775668,1,0,2,-7,-10,-15,-9,-8,-5,-4,-8
1449106775668,1,0,2,8,-9,-13,3,2,-2,0,1
1449106775670,2,0,2,9,-20,-83,-4,4,2,4,16
1449106775670,0,0,2,-7,2,33,7,0,-3,-6,-16
1449106775670,2,0,2,-4,18,32,2,-5,-2,-3,-4
1449106775670,0,0,2,-1,-12,-19,-1,-1,-1,-1,4
1449106775671,1,0,2,-6,2,-17,-7,-7,-6,1,-3
1449106775671,1,0,2,0,-15,-37,-4,4,3,10,6
1449106775717,2,0,2,3,4,25,0,-5,-5,-6,-11
1449106775717,2,0,2,6,-5,-7,4,3,-5,0,14
1449106775718,3,0,2,-1,-25,-34,5,6,6,2,3
1449106775718,3,0,2,-6,3,3,2,3,1,-2,-3
1449106775719,1,0,2,-4,-4,-28,-6,-2,4,1,0
1449106775719,1,0,2,18,-19,-8,9,9,6,8,15
1449106775720,2,0,2,-7,-5,-16,-9,-1,3,-2,-7
1449106775720,2,0,2,4,15,38,7,-3,-9,-2,0
1449106775766,3,0,2,-3,-39,-59,-2,-2,-6,-3,3
1449106775766,3,0,2,-8,36,69,9,3,-2,-2,-12
1449106775767,2,0,2,12,34,44,12,3,3,-1,-4
1449106775767,2,0,2,-5,9,-21,-6,-4,-6,-3,4
1449106775767,0,0,2,11,-1,-27,5,8,16,16,10
1449106775767,0,0,2,-8,-25,5,-5,-7,-10,-6,-5
1449106775768,3,0,2,-13,-25,-44,-11,-6,-3,-5,-12
1449106775768,3,0,2,-1,-32,18,-1,-5,0,5,-2
1449106775815,0,0,2,-1,2,16,-3,0,-4,-2,5
1449106775815,0,0,2,0,37,-24,-4,-4,-1,-3,4
1449106775816,1,0,2,1,-22,-4,1,4,8,4,-1
1449106775816,2,0,2,14,-7,-31,-6,10,12,10,14
1449106775816,2,0,2,-11,-23,21,-2,-12,-12,-19,-13
1449106775816,1,0,2,2,-7,-45,-4,1,2,7,3
1449106775817,3,0,2,0,-7,-48,-15,4,7,10,1
1449106775817,3,0,2,-6,27,43,14,5,3,23,2
1449106775864,0,0,2,4,1,-20,-15,-16,-12,-10,-1
1449106775864,1,0,2,3,0,-16,16,39,25,15,3
1449106775864,1,0,2,-13,2,95,-2,-15,-21,-28,-12
1449106775864,0,0,2,1,9,33,18,4,1,3,3
1449106775865,3,0,2,-24,-28,-39,-29,-16,-11,-9,-7
1449106775865,3,0,2,16,-1,-45,100,40,2,-4,1
1449106775866,0,0,2,5,12,30,16,5,2,4,3
1449106775866,0,0,2,7,-3,68,26,14,3,-1,2
1449106775912,1,0,2,12,-22,-22,-34,-11,5,14,10
1449106775912,1,0,2,-9,-5,-27,-10,-14,-8,-9,-8
1449106775913,2,0,2,15,-23,-62,-5,15,14,10,13
1449106775913,2,0,2,-25,-54,-32,15,-15,-16,-11,-9
1449106775914,0,0,2,-13,-40,-63,3,9,2,4,-3
1449106775914,1,0,2,-15,6,29,-28,-10,-2,-2,-6
1449106775914,0,0,2,-1,-44,-57,-24,-18,-16,-10,-6
1449106775914,1,0,2,-2,4,18,5,-7,-12,-10,-6
1449106775961,2,0,2,0,-22,-49,31,21,12,9,11
1449106775961,2,0,2,3,-11,20,3,-4,-6,-7,-2
1449106775962,1,0,2,5,-16,89,1,-18,-18,-6,-1
1449106775962,1,0,2,5,-5,-128,-46,-2,5,6,9
1449106775962,3,0,2,6,33,57,22,6,2,1,2
1449106775962,3,0,2,1,6,22,-16,-16,-10,-3,-4
1449106775963,2,0,2,-1,1,-8,-3,8,5,-3,-1
1449106775963,2,0,2,-3,2,21,7,-5,-8,-4,-3
1449106776010,3,0,2,-2,41,0,7,3,10,11,18
1449106776010,3,0,2,-8,-40,20,-3,1,-1,-12,-14
1449106776011,0,0,2,10,17,63,41,-4,-7,1,3
1449106776011,2,0,2,4,13,5,-12,-6,-1,3,3
1449106776011,2,0,2,-2,6,6,17,6,6,9,4
1449106776011,0,0,2,-3,-22,-15,-51,-15,-9,-6,-9
1449106776012,3,0,2,7,9,12,-8,-6,4,6,9
1449106776012,3,0,2,6,-9,-21,4,3,3,5,6
1449106776107,0,0,2,-16,18,39,-10,-6,-7,-20,-14
1449106776107,0,0,2,5,-8,-19,1,-1,1,19,3
1449106776108,3,0,2,-4,-14,-2,8,0,-5,-2,0
1449106776108,3,0,2,0,-15,-15,-5,-1,1,0,-3
1449106776108,1,0,2,-8,-10,25,-1,-4,-4,-6,-7
1449106776108,1,0,2,4,-26,-78,-29,-1,5,8,7
1449106776109,0,0,2,-14,-4,-40,-22,-2,1,-1,-3
1449106776109,0,0,2,6,-31,12,-2,0,-3,-3,3
1449106776156,1,0,2,5,-31,-4,2,-1,-5,-8,-3
1449106776156,1,0,2,0,48,14,-6,-4,-4,-1,-2
1449106776156,2,0,2,0,11,-23,3,-5,-2,2,0
1449106776156,2,0,2,-7,36,29,-12,-4,-8,-12,-13
1449106776157,0,0,2,-2,4,-17,-10,1,11,11,15
1449106776157,0,0,2,-2,-9,22,14,2,-8,-21,-14
1449106776158,0,0,2,-2,23,30,8,-1,-6,-4,-1
1449106776158,0,0,2,3,1,-52,-17,-6,1,7,1
1449106776204,1,0,2,-12,3,49,-7,-16,-19,-18,-16
1449106776204,1,0,2,-9,-7,-21,25,4,4,4,1
1449106776205,2,0,2,-8,-38,-53,-2,3,9,4,-4
1449106776205,2,0,2,13,-24,66,-3,-2,6,15,12
1449106776206,1,0,2,-4,-39,-39,-8,-3,0,0,-5
1449106776206,1,0,2,-4,-19,14,-3,2,5,6,3
1449106776207,2,0,2,-4,-2,-1,10,2,-1,4,2
1449106776207,2,0,2,-2,3,-30,-3,0,-3,-4,-3
1449106776253,3,0,2,-2,40,23,-19,-12,-6,3,-1
1449106776253,3,0,2,4,11,27,11,5,-3,-7,-3
1449106776254,0,0,2,9,-22,-6,8,3,1,2,8
1449106776254,0,0,2,-9,2,-7,-7,-7,-7,-7,-9
1449106776255,2,0,2,-2,-6,11,2,12,8,5,4
1449106776255,2,0,2,-10,-12,36,8,-2,-9,-15,-13
1449106776256,3,0,2,4,8,-68,-17,2,3,2,0
1449106776256,3,0,2,1,24,73,13,-6,-2,-5,-3
1449106776302,0,0,2,-6,-20,-8,-7,-10,-8,-1,-4
1449106776302,0,0,2,-3,-13,-28,0,-8,-7,-10,-3
1449106776303,1,0,2,-2,-34,-16,6,-2,-8,0,-1
1449106776303,1,0,2,2,13,2,-4,4,13,16,11
1449106776304,3,0,2,-2,-10,-2,-4,2,1,-2,0
1449106776304,0,0,2,-4,-18,5,-6,-9,-9,-7,-5
1449106776304,0,0,2,6,-6,-37,0,5,5,4,3
1449106776304,3,0,2,-2,31,34,-2,-8,-7,-8,-8
1449106776351,2,0,2,5,-10,-39,0,2,4,6,2
1449106776351,1,0,2,-4,-34,-32,-3,-2,-5,-5,-4
1449106776351,2,0,2,-13,12,6,10,0,-9,-11,-10
1449106776351,1,0,2,5,34,23,-6,5,6,4,2
1449106776352,0,0,2,10,26,-40,-1,7,9,8,4
1449106776352,0,0,2,-3,-8,9,2,-1,2,4,4
1449106776353,1,0,2,-3,-21,-23,-8,-4,-3,2,-5
1449106776353,1,0,2,1,-19,25,-2,-11,-9,-12,-3
1449106776399,2,0,2,4,-19,2,-1,-3,8,30,27
1449106776399,2,0,2,-9,10,20,0,-3,-9,-21,-19
1449106776400,3,0,2,-1,-8,-10,6,3,-2,-3,-2
1449106776400,3,0,2,-3,-18,-43,-12,0,0,-3,0
1449106776401,1,0,2,0,-9,13,-7,-6,-7,-3,-2
1449106776401,1,0,2,-11,-18,-84,-10,2,1,-4,-1
1449106776402,2,0,2,4,-9,6,7,-2,-3,-5,-1
1449106776402,2,0,2,8,-10,57,7,-2,2,4,3
1449106776448,3,0,2,0,-2,14,2,-2,-4,-3,-2
1449106776448,3,0,2,-6,6,-45,-11,-1,3,2,-1
1449106776449,0,0,2,-2,11,25,-4,0,-2,2,0
1449106776449,0,0,2,5,-8,-33,-3,-2,1,5,4
1449106776450,2,0,2,0,-2,-11,-5,-9,-10,-17,-6
1449106776450,2,0,2,-1,-1,-11,-1,0,0,2,0
1449106776451,3,0,2,0,1,15,-10,-13,-8,2,1
1449106776451,3,0,2,6,5,18,3,3,7,3,4
1449106776497,0,0,2,-5,-5,-33,-5,1,-2,-6,-10
1449106776497,0,0,2,-2,22,0,-2,7,3,-2,0
1449106776498,1,0,2,-10,-29,-31,-9,-10,-10,-4,-3
1449106776498,1,0,2,3,30,48,7,-3,-2,-6,-1
1449106776499,2,0,2,-1,-13,3,-9,-9,-2,0,0
1449106776499,3,0,2,6,7,0,-1,-1,4,13,6
1449106776499,3,0,2,1,2,20,4,16,13,5,6
1449106776499,2,0,2,0,5,-20,-1,-7,-13,-9,-6
1449106776546,0,0,2,-12,33,12,-17,-9,-5,-3,-7
1449106776546,0,0,2,2,4,30,7,6,4,1,-1
1449106776547,3,0,2,-2,3,-9,-5,-2,-3,-9,-1
1449106776547,3,0,2,7,16,-12,6,3,0,-1,1
1449106776547,1,0,2,1,-5,-14,-3,-6,-5,0,-2
1449106776547,1,0,2,1,8,15,3,-3,-3,-4,-1
1449106776548,0,0,2,5,-1,-16,9,10,7,8,5
1449106776548,0,0,2,-3,-11,9,-7,-11,-10,-12,-4
1449106776595,1,0,2,4,26,0,0,1,0,2,-4
1449106776595,1,0,2,-2,9,18,3,-2,-7,-4,-2
1449106776643,2,0,2,-6,9,35,7,4,4,2,3
1449106776643,2,0,2,2,-19,-35,0,-2,-1,-6,-1
1449106776644,0,0,2,-3,-8,-30,-6,-4,1,5,0
1449106776644,0,0,2,1,8,35,2,-4,-1,1,-2
1449106776645,1,0,2,-6,-15,2,-5,-9,-9,-7,-6
1449106776645,1,0,2,1,-6,-15,6,9,6,6,4
1449106776646,2,0,2,1,-15,17,0,0,-1,0,3
1449106776646,2,0,2,-2,-9,-45,-10,1,6,7,2
1449106776692,3,0,2,9,12,13,-1,-3,-3,-3,3
1449106776692,3,0,2,-4,-7,26,6,-2,-7,-10,-5
1449106776741,2,0,2,4,-7,-10,-8,-6,-6,-6,-2
1449106776741,1,0,2,0,-4,-13,-1,2,1,-6,-3
1449106776741,2,0,2,2,5,12,4,2,3,1,1
1449106776741,1,0,2,-1,-16,0,2,-3,-3,-2,2
1449106776742,3,0,2,1,-11,-14,-4,-3,2,-1,1
1449106776742,3,0,2,-8,-1,-1,-5,-7,-4,-6,-8
1449106776743,0,0,2,5,8,1,9,10,12,13,8
1449106776743,0,0,2,-5,-20,-15,-5,-6,-6,-4,-5
1449106776789,1,0,2,-5,-13,-39,-6,0,1,-3,-4
1449106776789,1,0,2,1,0,20,8,5,1,0,-3
1449106776790,3,0,2,-5,-19,-19,-11,0,0,2,3
1449106776790,3,0,2,-5,4,12,9,8,5,6,-3
1449106776791,0,0,2,0,6,-10,0,4,2,1,-3
1449106776791,0,0,2,-1,-20,-12,-3,0,0,-2,5
1449106776792,0,0,2,0,-5,2,-1,-1,-3,-4,-4
1449106776792,0,0,2,-3,0,-48,-6,-2,-1,-4,0
1449106776838,1,0,2,-1,5,9,-1,-3,-1,0,-1
1449106776838,1,0,2,1,-1,1,-4,-1,2,2,2
1449106776839,2,0,2,-1,-12,-7,-1,-3,-2,-2,-2
1449106776839,2,0,2,-1,5,6,1,-6,-6,-5,-5
1449106776840,0,0,2,-2,-9,-8,-1,4,1,2,0
1449106776840,0,0,2,1,-5,11,10,11,-1,1,3
1449106776841,1,0,2,5,8,-24,-10,-5,-9,-8,-2
1449106776841,1,0,2,-3,-4,38,1,-12,-6,-5,-8
1449106776887,2,0,2,4,-13,16,11,17,19,23,9
1449106776887,2,0,2,-3,-6,-12,-8,-11,-11,-22,-7
1449106776888,1,0,2,2,6,-7,-3,-5,-1,-2,0
1449106776888,1,0,2,-4,-16,-26,-12,-8,-1,0,-1
1449106776888,3,0,2,-3,-1,-29,-2,-7,-8,-4,-4
1449106776888,3,0,2,3,-6,9,9,14,10,11,3
1449106776890,2,0,2,-4,18,-10,0,7,0,0,-2
1449106776890,2,0,2,-1,0,-5,-4,-1,2,1,0
1449106776936,3,0,2,-6,10,22,0,-4,-4,0,-2
1449106776936,3,0,2,-2,10,5,-4,-1,-3,-5,-5
1449106776937,0,0,2,1,10,11,0,-6,-10,-10,-4
1449106776937,0,0,2,4,0,-1,2,0,5,9,2
1449106776937,2,0,2,0,5,-1,5,5,2,0,2
1449106776937,2,0,2,-9,-19,3,1,-6,-8,-5,-9
1449106776938,3,0,2,3,8,-22,-9,-6,-1,1,-1
1449106776938,3,0,2,3,5,17,12,3,-3,-4,-1
1449106776984,0,0,2,-1,-17,7,-3,-11,-9,-21,-6
1449106776984,0,0,2,-2,-11,2,-6,-2,0,1,1
1449106776985,1,0,2,-3,12,-18,-11,-10,3,14,4
1449106776985,1,0,2,4,3,34,20,27,13,6,5
1449106776986,3,0,2,0,-8,-32,-10,-8,-7,-4,-2
1449106776986,3,0,2,-3,-8,13,-8,-1,-5,-7,-3
1449106776987,0,0,2,-7,-13,-25,-5,-7,-4,2,1
1449106776987,0,0,2,-4,9,7,-6,-2,-2,3,-1
1449106777033,1,0,2,3,3,26,12,2,-7,-5,-2
1449106777033,1,0,2,0,-1,-23,-6,-2,1,4,0
1449106777034,2,0,2,0,-1,3,2,5,2,-5,-1
1449106777034,2,0,2,-2,-12,-7,-3,-5,-4,0,1
1449106777035,0,0,2,-5,-5,10,-3,5,4,-3,-3
1449106777035,0,0,2,0,-10,13,-2,1,6,6,3
1449106777036,1,0,2,1,-4,-9,8,3,-2,-2,-1
1449106777036,1,0,2,0,-1,6,-1,-2,1,1,2
1449106777082,2,0,2,-1,-26,-8,-5,-6,-4,0,1
1449106777082,2,0,2,-2,10,10,-2,-2,-1,3,-1
1449106777083,3,0,2,-2,-11,-34,-11,-7,-4,-4,-1
1449106777083,3,0,2,-1,-19,15,3,6,6,1,-1
1449106777084,1,0,2,-4,-13,-17,-6,-6,-4,-3,-2
1449106777084,2,0,2,2,-16,-37,1,4,4,-5,-1
1449106777084,1,0,2,-4,8,28,2,-7,-7,-7,-5
1449106777084,2,0,2,-3,3,-15,-3,7,2,-3,-4
1449106777131,3,0,2,1,8,49,10,1,0,0,1
1449106777131,3,0,2,-7,7,-4,-8,-5,3,11,-1
1449106777132,2,0,2,-1,0,14,7,6,2,2,1
1449106777132,0,0,2,-3,-1,7,-1,-5,-5,-8,-3
1449106777132,0,0,2,-4,-14,-23,-6,-3,-3,-4,-5
1449106777132,2,0,2,2,9,18,11,12,10,17,-2
1449106777133,3,0,2,-2,0,0,1,6,-1,-6,-2
1449106777133,3,0,2,-2,-3,-3,0,-6,-4,-1,-2
1449106777179,0,0,2,-9,-18,-12,-23,-15,-14,-11,-3
1449106777179,0,0,2,3,-6,8,-2,-7,-6,-1,2
1449106777180,1,0,2,-6,-8,-40,-8,3,-1,-4,-5
1449106777180,1,0,2,4,5,37,9,8,7,0,-1
1449106777181,3,0,2,-2,-11,-7,2,-1,-2,-4,-4
1449106777181,3,0,2,6,0,6,2,3,6,1,6
1449106777182,0,0,2,6,-2,-3,15,4,1,6,7
1449106777182,0,0,2,-2,-1,-19,-7,-2,-1,-2,-2
1449106777228,1,0,2,-1,-3,16,2,0,-2,-6,-6
1449106777228,1,0,2,1,-13,-4,-6,-8,-4,-3,-1
1449106777229,2,0,2,4,-5,-17,8,2,2,8,10
1449106777229,2,0,2,-2,-11,-3,-3,2,1,-3,-5
1449106777230,3,0,2,0,2,11,11,6,-6,-5,-3
1449106777230,3,0,2,-4,3,-4,-16,-6,-1,-4,-3
1449106777231,0,0,2,2,-5,4,0,3,3,5,2
1449106777231,0,0,2,-3,-1,29,3,-5,0,0,-2
1449106777277,1,0,2,-8,-9,8,-4,-5,-2,-2,-6
1449106777277,1,0,2,-3,-16,-63,-6,1,0,2,3
1449106777278,2,0,2,-4,-3,-6,-1,-4,-6,-12,-3
1449106777278,2,0,2,-2,17,21,-5,-3,-5,1,-4
1449106777278,0,0,2,-2,7,1,1,1,-3,-3,0
1449106777278,0,0,2,-1,10,5,-3,-4,-2,-16,-5
1449106777279,1,0,2,0,5,-10,-2,-1,4,16,2
1449106777279,1,0,2,0,11,12,-5,-4,-5,-4,-2
1449106777326,2,0,2,0,-2,-14,-8,-6,0,0,2
1449106777326,2,0,2,-7,7,-8,-1,-1,-1,-1,-3
1449106777327,1,0,2,-8,-25,-28,-13,-16,-13,-5,-6
1449106777327,3,0,2,-1,15,1,15,6,3,0,-1
1449106777327,3,0,2,3,-1,5,-6,-3,-3,-8,-1
1449106777327,1,0,2,-3,3,23,2,-2,-1,-8,-5
1449106777328,2,0,2,0,0,-23,-5,4,3,5,2
1449106777328,2,0,2,-1,-5,4,6,7,8,6,-2
1449106777374,3,0,2,-5,22,13,-1,-2,-3,1,-5
1449106777374,3,0,2,-1,-21,-1,-6,-7,-8,-9,2
1449106777375,0,0,2,4,-11,-16,4,-3,-2,0,4
1449106777375,0,0,2,5,8,6,2,-1,-5,-14,0
1449106777376,2,0,2,-1,1,-5,1,1,-2,3,1
1449106777376,2,0,2,-1,-9,-12,1,5,3,-2,-2
1449106777377,3,0,2,-4,-4,-6,-9,-9,-8,-5,2
1449106777377,3,0,2,-1,-3,-10,2,3,-4,-14,-6
1449106777423,0,0,2,-2,-5,3,-1,-4,4,6,-1
1449106777423,0,0,2,-5,-15,-14,-3,-3,-6,-1,-7
1449106777424,1,0,2,3,2,11,2,3,0,1,3
1449106777424,1,0,2,1,-3,-15,-4,0,4,-2,1
1449106777425,3,0,2,0,-15,-8,6,3,-5,-8,-1
1449106777425,3,0,2,-4,-8,-9,-2,-1,0,-4,-6
1449106777426,0,0,2,-12,14,-5,-14,-10,-12,-21,-10
1449106777426,0,0,2,9,2,13,-7,-11,-3,-2,3
1449106777472,1,0,2,4,-6,12,3,3,8,18,3
1449106777472,1,0,2,-2,-5,-19,-4,1,3,-1,-1
1449106777473,2,0,2,1,0,-11,3,7,5,4,2
1449106777473,0,0,2,-1,5,-2,-2,-6,-4,-1,-6
1449106777473,0,0,2,0,-7,-7,-5,-3,3,9,7
1449106777473,2,0,2,0,-18,5,5,1,-10,0,-5
1449106777474,1,0,2,-4,0,-23,-4,-3,-7,-13,-7
1449106777474,1,0,2,4,4,42,0,-1,-4,-1,-4
1449106777521,2,0,2,4,-15,-32,6,3,-3,1,1
1449106777521,2,0,2,-4,6,-2,-3,-1,0,-1,3
1449106777522,3,0,2,1,-6,-17,-10,-4,2,2,2
1449106777522,3,0,2,-3,-5,39,-1,-4,-5,-7,-6
1449106777523,1,0,2,-4,4,48,5,-6,-5,-2,-3
1449106777523,1,0,2,-2,-9,-13,-4,1,-5,-4,-1
1449106777570,2,0,3,-2,-9,-23,-10,-8,-3,0,1
1449106777570,2,0,3,-5,-2,6,5,3,4,6,1
1449106777573,3,0,3,1,2,-12,-7,-2,-3,-8,0
1449106777573,3,0,3,-1,-7,5,4,1,4,7,9
1449106777574,0,0,3,-1,-10,-12,-2,-1,-7,-4,-1
1449106777574,0,0,3,-2,-10,6,-2,-3,-4,-8,-3
1449106777575,1,0,3,1,-7,0,6,7,-1,11,-3
1449106777575,1,0,3,-6,-5,-4,-4,-7,-4,-19,-7
1449106777618,2,0,3,-2,13,27,-4,-3,-2,-4,-3
1449106777618,2,0,3,1,-18,-23,-5,-4,4,12,7
1449106777619,3,0,3,2,5,29,13,7,4,7,1
1449106777619,3,0,3,6,-2,7,6,10,7,1,2
1449106777620,2,0,3,-1,5,32,-1,-1,-2,-5,-2
1449106777620,2,0,3,1,2,8,2,-2,8,3,1
1449106777621,3,0,3,-5,-1,9,1,-7,-11,-12,-7
1449106777621,3,0,3,-1,3,-29,-16,-8,-11,-8,-1
1449106777667,0,0,3,2,4,9,0,0,5,1,8
1449106777667,0,0,3,0,14,14,1,-2,-3,-7,-5
1449106777668,1,0,3,11,-6,-10,6,10,12,18,4
1449106777668,1,0,3,-16,-12,-15,-1,-1,-2,-8,-7
1449106777669,3,0,3,-5,-11,-11,-5,-7,-7,-3,-5
1449106777669,3,0,3,16,-9,-10,-7,-2,2,8,12
1449106777716,0,0,3,-4,-8,21,3,-1,-2,1,-2
1449106777716,0,0,3,-5,17,22,2,4,1,-2,-2
1449106777717,1,0,3,-1,-15,2,-3,-6,-6,-3,-2
1449106777717,2,0,3,6,0,4,3,11,7,5,1
1449106777717,2,0,3,-1,9,-11,-1,0,3,-2,-2
1449106777717,1,0,3,1,-2,-32,-7,1,-1,0,1
1449106777718,0,0,3,-1,3,-14,-6,-7,-7,-7,-3
1449106777718,0,0,3,-5,-5,-5,-3,-1,-1,4,-3
1449106777764,1,0,3,2,21,35,5,5,10,24,4
1449106777764,1,0,3,-3,-12,-10,-1,-1,-7,-31,-7
1449106777765,2,0,3,5,-9,-6,-1,-7,-4,1,3
1449106777765,2,0,3,-3,-5,-3,2,2,1,-2,-6
1449106777766,1,0,3,-4,8,-8,-8,-7,-11,-11,-5
1449106777766,1,0,3,-31,-22,-22,2,4,6,7,-15
1449106777767,2,0,3,13,15,27,10,7,6,11,7
1449106777767,2,0,3,16,-1,-13,5,4,5,2,8
1449106777813,3,0,3,10,9,22,1,-4,-3,5,4
1449106777813,3,0,3,-5,-17,-18,-6,-6,-4,-5,-5
1449106777814,0,0,3,4,-6,-7,5,4,1,-14,-4
1449106777814,2,0,3,2,-10,11,2,2,12,8,2
1449106777814,0,0,3,-1,6,8,2,7,0,5,6
1449106777814,2,0,3,-4,-8,-18,-6,-6,-21,-20,-5
1449106777816,3,0,3,2,13,0,6,8,13,12,-4
1449106777816,3,0,3,-2,1,-13,-7,-1,4,9,10
1449106777862,0,0,3,-6,-6,5,-1,0,-4,-3,-1
1449106777862,0,0,3,0,-6,0,-1,-2,-5,-1,2
1449106777863,1,0,3,-3,-3,5,-1,-4,-3,5,-2
1449106777863,3,0,3,1,-6,0,0,-2,7,-2,-3
1449106777863,3,0,3,-7,16,-9,-1,2,-1,1,0
1449106777863,1,0,3,7,-4,13,2,3,-8,-15,-7
1449106777864,0,0,3,-10,-7,-44,-14,-7,-2,-5,-11
1449106777864,0,0,3,10,-14,22,5,0,4,4,3
1449106777911,1,0,3,-1,-5,31,2,-4,-6,-2,6
1449106777911,2,0,3,1,-2,14,4,-2,5,2,2
1449106777911,1,0,3,4,-1,-15,0,1,-3,-7,-9
1449106777911,2,0,3,-6,-19,-8,-7,-4,-4,1,9
1449106777912,3,0,3,-6,5,25,2,0,14,7,-12
1449106777912,3,0,3,1,-10,1,-2,-4,-5,-4,-5
1449106777913,0,0,3,18,-3,-6,2,9,7,13,16
1449106777913,0,0,3,-2,-1,2,3,-2,-14,-6,-15
1449106777959,1,0,3,-17,-11,24,3,13,19,-6,-13
1449106777959,1,0,3,8,3,-8,3,1,1,4,26
1449106777960,2,0,3,10,16,-7,-10,-5,7,4,-9
1449106777960,2,0,3,-3,-8,-7,-8,-7,-4,-5,7
1449106777961,0,0,3,11,17,-1,-6,-8,-13,-6,3
1449106777961,0,0,3,-17,-29,3,2,-1,3,-1,-1
1449106777962,1,0,3,-12,-17,4,-6,-7,-7,-3,-2
1449106777962,1,0,3,-6,-10,-7,-5,-3,-6,-4,1
1449106778008,2,0,3,4,3,5,7,1,-4,7,4
1449106778008,2,0,3,8,-5,7,3,4,6,0,1
1449106778009,3,0,3,-3,-3,-13,-4,-2,-6,-3,2
1449106778009,1,0,3,9,17,-10,0,4,3,6,8
1449106778009,3,0,3,0,14,-21,-5,-3,-2,-2,2
1449106778009,1,0,3,-3,0,-11,-2,-4,-10,-6,-4
1449106778011,2,0,3,-2,13,0,0,0,8,5,-3
1449106778011,2,0,3,0,-1,5,-2,-5,-15,-6,0
1449106778057,3,0,3,8,12,-11,4,0,3,4,5
1449106778057,3,0,3,-15,-7,-4,3,5,5,-2,-5
1449106778058,0,0,3,8,5,-6,-3,-5,-6,-5,3
1449106778058,2,0,3,-5,1,0,-3,0,4,-2,-4
1449106778058,2,0,3,-2,-11,-5,0,1,-13,-6,-4
1449106778058,0,0,3,-5,-1,3,0,0,5,3,-1
1449106778060,3,0,3,8,0,-3,-5,-6,-10,0,6
1449106778060,3,0,3,8,13,2,0,-2,7,7,2
1449106778106,0,0,3,-10,-21,-7,-1,3,-3,2,-3
1449106778106,0,0,3,-4,0,-1,0,-5,-7,-11,-5
1449106778106,1,0,3,-4,17,-11,-4,-2,-15,-9,5
1449106778106,1,0,3,-1,-21,-5,-1,0,6,0,-13
1449106778107,3,0,3,-8,-4,-8,0,-2,-1,-9,-9
1449106778107,3,0,3,0,-18,0,1,2,0,-1,-11
1449106778108,0,0,3,-5,-3,10,2,-2,11,6,-7
1449106778108,0,0,3,7,-7,-1,-2,0,0,2,2
1449106778155,1,0,3,0,-6,-3,2,-3,-10,-9,-3
1449106778155,1,0,3,0,10,1,-4,-2,-4,3,4
1449106778156,2,0,3,4,-7,1,3,2,9,3,3
1449106778156,2,0,3,-3,-4,-5,3,7,9,4,-3
1449106778156,0,0,3,-1,1,-4,-4,-7,-10,-8,1
1449106778156,0,0,3,-1,-4,2,0,0,7,2,-3
1449106778157,1,0,3,-1,-8,13,6,0,-8,-3,0
1449106778157,1,0,3,3,-1,-2,0,3,3,2,4
1449106778203,2,0,3,0,-6,-2,-2,1,-2,-7,-5
1449106778203,2,0,3,-8,-4,-26,-11,-7,-2,-1,-1
1449106778204,3,0,3,4,-7,-3,-2,2,18,16,14
1449106778204,3,0,3,-2,-7,2,-1,-5,-8,-9,-10
1449106778205,1,0,3,5,-4,-3,0,-1,-8,-2,10
1449106778205,1,0,3,-1,-5,-1,-4,-4,-4,-7,-7
1449106778206,2,0,3,-6,-10,-3,1,4,5,-2,5
1449106778206,2,0,3,-6,-6,-2,-5,-9,-15,2,-9
1449106778252,3,0,3,3,-5,1,3,3,3,4,3
1449106778252,3,0,3,2,-6,-3,1,-3,-3,1,5
1449106778253,0,0,3,-2,-5,-4,-6,-8,-6,-10,-14
1449106778253,2,0,3,2,-4,4,-2,-1,2,-1,2
1449106778253,0,0,3,1,1,4,0,-2,-4,0,-5
1449106778253,2,0,3,-1,-9,-1,-1,0,9,3,-4
1449106778255,3,0,3,-1,2,-3,0,-3,-5,-2,3
1449106778255,3,0,3,0,-8,-1,2,6,2,-3,0
1449106778301,0,0,3,5,13,7,4,1,-3,-2,4
1449106778301,0,0,3,-1,-8,-2,1,-3,-2,3,-6
1449106778302,2,0,3,-2,-14,-1,4,9,8,1,4
1449106778302,2,0,3,2,3,2,0,0,-2,0,-2
1449106778302,1,0,3,-2,-3,0,-7,-4,-1,3,9
1449106778302,1,0,3,3,1,-2,-5,-12,-11,-3,-2
1449106778303,3,0,3,3,0,2,1,2,2,-3,-1
1449106778303,3,0,3,-8,-6,-5,-7,-4,2,2,-5
1449106778349,0,0,3,4,3,-1,-3,-3,-7,0,5
1449106778349,0,0,3,-2,-13,-2,0,-1,3,-2,-2
1449106778350,1,0,3,8,-7,-1,-6,-8,-9,-10,3
1449106778350,1,0,3,-2,0,2,6,9,3,-1,-6
1449106778351,3,0,3,-11,1,-2,-1,-2,-3,-2,-5
1449106778351,3,0,3,-5,-9,-6,-3,-4,0,-4,-5
1449106778352,0,0,3,4,1,3,-1,-2,3,-1,10
1449106778352,0,0,3,0,2,0,-2,-2,2,1,-2
1449106778398,1,0,3,-2,-7,-5,-3,-3,-13,-9,-6
1449106778398,1,0,3,-2,0,3,1,0,3,2,-3
1449106778399,2,0,3,1,0,0,-3,-1,1,-1,-1
1449106778399,0,0,3,-12,-15,-10,-7,-7,-11,-11,0
1449106778399,0,0,3,0,3,1,5,9,6,8,2
1449106778399,2,0,3,-2,4,-4,-2,-4,-5,-8,-8
1449106778401,1,0,3,-2,-7,-3,-2,-5,6,1,-3
1449106778401,1,0,3,-1,0,0,0,2,2,1,0
1449106778447,2,0,3,2,5,2,-2,-5,-9,-4,-2
1449106778447,2,0,3,0,1,-3,-8,-11,-7,-5,-1
1449106778448,1,0,3,2,6,-1,-5,-7,7,2,3
1449106778448,3,0,3,0,9,1,-1,0,1,2,1
1449106778448,1,0,3,4,-1,-1,-3,-5,-6,-3,3
1449106778448,3,0,3,-11,-9,-3,0,-3,-10,-6,-6
1449106778449,2,0,3,5,1,7,2,0,-5,-3,2
1449106778449,2,0,3,-13,-9,-7,-1,-2,-13,-8,-2
1449106778496,0,0,3,-9,5,-7,-4,-2,-1,-7,-6
1449106778496,0,0,3,4,-11,-2,-1,1,8,7,-2
1449106778496,3,0,3,0,-13,2,2,2,12,5,-4
1449106778496,3,0,3,-5,-7,-4,2,-1,-11,-6,2
1449106778497,2,0,3,-7,-15,-6,-3,-5,-5,-3,-6
1449106778497,2,0,3,4,13,-1,-4,-4,1,-1,1
1449106778498,3,0,3,-3,1,-4,-2,0,-9,-6,-2
1449106778498,3,0,3,2,1,0,-1,2,9,1,-6
1449106778545,0,0,3,3,-1,6,4,5,11,5,3
1449106778545,0,0,3,2,-11,-2,-1,-2,0,2,-1
1449106778545,1,0,3,-10,6,1,1,1,0,-3,-5
1449106778545,1,0,3,1,-6,0,-4,-3,1,1,0
1449106778546,3,0,3,-2,-4,0,1,4,-6,1,8
1449106778546,3,0,3,3,-6,-3,-2,-1,5,-3,1
1449106778547,0,0,3,-2,-4,-1,0,0,-2,0,-8
1449106778547,0,0,3,4,0,0,4,6,12,1,-4
1449106778593,1,0,3,6,-4,0,-3,-5,-2,8,15
1449106778593,1,0,3,-9,-11,-3,-3,-3,-14,-12,-13
1449106778594,2,0,3,-2,-1,-5,-5,-6,-4,-2,1
1449106778594,2,0,3,3,-5,3,-2,1,6,2,1
1449106778595,0,0,3,-8,-14,-5,-3,-2,1,0,0
1449106778595,0,0,3,7,-2,3,-2,-5,-5,0,1
1449106778596,1,0,3,0,-8,0,-3,-7,-4,-1,-3
1449106778596,1,0,3,3,0,-1,6,11,9,6,9
1449106778643,2,0,3,1,-1,2,3,2,2,0,-4
1449106778643,2,0,3,-10,-9,1,-5,-6,-5,-7,-7
1449106778644,3,0,3,0,-10,0,0,-2,-2,1,-6
1449106778644,3,0,3,1,-2,-1,2,1,-4,0,4
1449106778645,0,0,3,-3,-1,-2,0,0,4,-1,-9
1449106778645,0,0,3,0,-3,-3,-2,-2,-2,-2,7
1449106778646,1,0,3,0,-3,1,2,0,1,1,-8
1449106778646,1,0,3,-3,-9,1,-6,-5,-12,-3,-2
1449106778691,2,0,3,4,1,-1,-2,-1,5,8,13
1449106778691,2,0,3,-1,-6,-1,-1,0,-6,-8,-12
1449106778692,3,0,3,-1,2,-4,0,0,-2,-6,-10
1449106778692,3,0,3,0,-1,-3,-7,-3,-2,0,5
1449106778693,2,0,3,2,-7,-6,-2,-3,-3,-2,3
1449106778693,1,0,3,2,-3,1,-4,2,7,4,5
1449106778693,2,0,3,4,2,4,3,4,1,0,6
1449106778693,1,0,3,-12,-1,5,3,2,0,-1,-7
1449106778740,3,0,3,-6,-5,-3,1,2,2,-3,-8
1449106778740,3,0,3,2,-5,-1,-6,-5,-2,-4,5
1449106778741,2,0,3,-4,-11,3,2,4,7,0,-4
1449106778741,0,0,3,-9,-9,-6,-6,-8,-7,-3,-10
1449106778741,2,0,3,2,1,4,-3,-3,0,-1,0
1449106778741,0,0,3,6,-4,5,7,4,-2,11,8
1449106778742,3,0,3,3,3,-4,1,-2,-6,-4,1
1449106778742,3,0,3,-2,0,-3,0,-3,-6,-3,-2
1449106778788,0,0,3,-1,5,8,-3,-1,1,-2,-3
1449106778788,0,0,3,-11,-1,-5,-4,-2,3,3,-1
1449106778789,1,0,3,-5,13,-11,-6,-5,-2,-6,-5
1449106778789,1,0,3,3,7,2,0,0,4,3,10
1449106778790,3,0,3,-1,5,11,2,0,-2,-5,-10
1449106778790,3,0,3,3,7,-4,3,2,4,3,-1
1449106778791,0,0,3,3,12,-6,2,0,2,1,10
1449106778791,0,0,3,-3,14,8,2,1,1,1,-5
1449106778837,1,0,3,-3,-10,-4,-5,-6,-8,-8,-3
1449106778837,1,0,3,5,4,0,0,-2,-2,2,2
1449106778838,2,0,3,3,2,4,5,3,-4,3,7
1449106778838,2,0,3,4,-4,-11,-6,-6,3,-11,-11
1449106778839,1,0,3,-4,-1,-6,-6,-4,-1,-4,-6
1449106778839,0,0,3,2,1,-7,-8,-8,-3,0,7
1449106778839,1,0,3,5,-2,-3,4,6,0,2,1
1449106778839,0,0,3,-2,-3,2,2,-1,-6,-9,-3
1449106778886,2,0,3,-5,-7,-17,-4,-6,-3,6,9
1449106778886,2,0,3,4,-3,5,-2,-4,-7,-6,-6
1449106778887,1,0,3,1,8,0,2,2,2,5,6
1449106778887,3,0,3,-3,-3,7,-8,-7,1,-3,-7
1449106778887,3,0,3,1,-2,-2,0,3,-4,-1,-1
1449106778887,1,0,3,-2,-2,-7,-7,-8,-6,-5,-4
1449106778888,2,0,3,1,-13,1,-3,-4,1,-3,-3
1449106778888,2,0,3,1,-3,3,1,-2,-1,0,7
1449106778935,3,0,3,3,0,3,6,8,2,-4,-3
1449106778935,3,0,3,-3,8,-2,-4,-4,-3,-2,-2
1449106778936,0,0,3,1,-15,-7,-3,-1,20,4,-3
1449106778936,2,0,3,-5,-1,-1,0,5,6,8,2
1449106778936,2,0,3,1,-4,1,6,6,-6,0,4
1449106778936,0,0,3,-1,-6,-2,-4,-3,-7,-4,7
1449106778937,3,0,3,-3,-17,-3,-1,0,7,9,3
1449106778937,3,0,3,-2,-14,-7,-1,0,-2,-2,-4
1449106778984,0,0,3,1,-5,-5,-2,-5,-6,-5,-5
1449106778984,0,0,3,-2,5,12,-4,-6,-8,-4,3
1449106778985,1,0,3,-3,-22,-11,-4,-7,-1,1,-6
1449106778985,2,0,3,-1,-5,-8,1,9,5,0,-2
1449106778985,2,0,3,5,1,7,1,-2,0,3,0
1449106778985,1,0,3,0,17,15,-5,-3,0,3,1
1449106778986,3,0,3,4,-9,0,-3,-7,-14,-8,-4
1449106778986,3,0,3,-2,-16,-14,-5,-3,7,-1,7
1449106779032,0,0,3,0,0,10,0,0,0,3,-5
1449106779032,0,0,3,-2,0,11,3,4,12,9,4
1449106779033,1,0,3,-12,-27,-14,3,1,2,5,4
1449106779033,1,0,3,-2,-16,-2,-4,-1,-8,-20,-17
1449106779034,3,0,3,-6,-16,-4,-6,-7,-4,-3,-10
1449106779034,3,0,3,-2,14,-1,-2,-3,3,6,5
1449106779035,0,0,3,-4,4,-6,3,4,2,-5,2
1449106779035,0,0,3,-2,-10,-12,-4,-2,-6,-4,1
1449106779081,1,0,3,7,-13,-46,1,0,-5,-2,2
1449106779081,1,0,3,3,3,21,6,2,10,5,3
1449106779082,2,0,3,-20,-6,26,-6,-5,-4,0,-12
1449106779082,0,0,3,3,-24,-7,-5,-6,-28,-10,6
1449106779082,0,0,3,-9,14,25,-4,-4,8,-5,-25
1449106779082,2,0,3,-4,4,-6,-5,-4,-5,-3,-6
1449106779083,1,0,3,-3,-7,7,-1,-4,-6,-6,7
1449106779083,1,0,3,6,0,8,1,2,3,4,3
1449106779130,3,0,3,1,-1,13,8,2,5,8,1
1449106779130,2,0,3,1,-17,-32,-1,1,4,-3,-9
1449106779130,3,0,3,-3,19,26,-9,-6,-7,-7,-11
1449106779130,2,0,3,-8,-16,-33,-7,-4,-4,3,10
1449106779131,1,0,3,-4,8,25,-2,2,-2,3,11
1449106779131,1,0,3,2,-11,-2,7,5,10,7,2
1449106779132,2,0,3,5,-22,-48,-8,-5,-5,-3,-1
1449106779132,2,0,3,9,15,17,1,1,5,-1,-15
1449106779179,3,0,3,-3,23,15,5,0,0,-3,-9
1449106779179,3,0,3,-5,16,-2,-9,-8,-16,-9,2
1449106779180,0,0,3,-3,-6,-19,0,5,18,18,-4
1449106779180,2,0,3,1,29,19,-2,-9,-7,-5,-6
1449106779180,0,0,3,6,-13,0,-4,-5,-4,7,17
1449106779180,2,0,3,1,6,-1,9,6,-2,-9,-2
1449106779181,3,0,3,2,-18,-36,-13,-6,-9,-8,-7
1449106779181,3,0,3,-4,8,-5,-1,1,7,14,6
1449106779227,0,0,3,-11,-20,25,-8,-16,-9,-8,-3
1449106779227,0,0,3,2,4,15,20,8,2,3,1
1449106779228,1,0,3,-19,-13,-54,-47,-1,1,1,-9
1449106779228,3,0,3,4,-32,-33,11,-5,0,0,-3
1449106779228,1,0,3,-1,15,19,-37,-20,-8,-10,-5
1449106779228,3,0,3,-5,54,25,26,18,8,-7,-9
1449106779229,0,0,3,-16,49,49,-38,-18,-8,-13,-13
1449106779229,0,0,3,10,-19,-30,1,8,10,21,21
1449106779276,1,0,3,7,-13,49,16,-1,0,1,5
1449106779276,2,0,3,6,1,-15,-13,-2,-2,1,0
1449106779276,2,0,3,9,-29,-32,3,1,6,8,11
1449106779276,1,0,3,4,-20,-30,3,10,6,4,4
1449106779277,0,0,3,-4,-26,-51,-11,2,1,5,-5
1449106779277,0,0,3,-18,-1,-37,4,2,-4,-9,7
1449106779278,1,0,3,-14,-7,-92,-5,0,-3,-8,-12
1449106779278,1,0,3,-1,34,118,9,-13,-8,0,-3
1449106779325,2,0,3,17,-15,51,-5,-6,3,4,10
1449106779325,2,0,3,9,-15,49,12,19,11,3,-1
1449106779326,3,0,3,-13,21,15,2,-10,-13,-12,-10
1449106779326,0,0,3,0,-30,-37,36,14,6,0,1
1449106779326,3,0,3,8,-44,-47,-12,9,5,8,9
1449106779326,0,0,3,0,40,10,-11,-16,-11,-10,-2
1449106779327,1,0,3,4,-13,25,-1,4,7,1,-4
1449106779327,1,0,3,7,0,31,-8,-6,-5,-6,2
1449106779373,2,0,3,-12,-14,-20,7,3,5,9,1
1449106779373,2,0,3,12,3,-11,-8,-4,-2,1,4
1449106779374,3,0,3,2,-5,-36,-8,-3,3,5,4
1449106779374,3,0,3,-6,-9,-1,9,-1,-4,-4,-3
1449106779375,1,0,3,-4,-8,14,6,-6,-3,5,-2
1449106779375,1,0,3,3,9,23,1,7,0,-2,2
1449106779376,2,0,3,0,37,-13,-5,-3,-1,-1,0
1449106779376,2,0,3,-1,-28,-12,-9,-8,-7,-8,-7
1449106779423,3,0,3,15,11,17,-3,-6,1,3,7
1449106779423,3,0,3,-10,-10,-43,-4,8,2,-3,-5
1449106779424,0,0,3,-2,9,3,28,10,2,-2,-3
1449106779424,0,0,3,-3,8,26,-14,5,-2,-14,-9
1449106779425,3,0,3,2,15,-18,-10,-1,-2,-3,-4
1449106779425,2,0,3,0,-5,35,3,-1,-4,-4,-4
1449106779425,2,0,3,2,-20,-15,-1,-1,-2,0,1
1449106779425,3,0,3,-3,-14,14,14,4,-1,-7,-10
1449106779471,0,0,3,3,-5,-16,0,9,10,8,3
1449106779471,0,0,3,2,5,-3,-8,-8,-3,13,7
1449106779472,3,0,3,-2,-12,13,8,2,-2,-5,-3
1449106779472,1,0,3,4,-18,-6,3,1,7,6,4
1449106779472,3,0,3,-4,-14,-64,-3,7,5,5,4
1449106779472,1,0,3,1,-15,11,-3,-11,-8,4,8
1449106779473,0,0,3,-3,25,24,-16,-2,2,4,1
1449106779473,0,0,3,-11,3,27,4,-13,-5,-7,-5
1449106779568,1,0,3,-10,-33,-45,-16,-4,-3,-1,0
1449106779568,1,0,3,3,-6,7,7,-3,-5,-6,-6
1449106779569,2,0,3,4,2,-20,8,3,3,7,3
1449106779569,2,0,3,4,-11,37,-4,-7,-3,-1,-1
1449106779570,0,0,3,3,24,-4,-3,0,1,2,1
1449106779570,0,0,3,-8,-17,-12,0,1,0,3,3
1449106779571,1,0,3,-1,8,-30,0,-2,-1,1,4
1449106779571,1,0,3,7,1,23,-2,0,-1,2,0
1449106779617,2,0,3,-3,8,-20,-3,1,-1,-3,-2
1449106779617,2,0,3,-6,-6,25,1,-5,-8,-8,-8
1449106779618,3,0,3,1,2,21,-1,0,0,-2,-3
1449106779618,1,0,3,-9,11,6,-5,-5,-6,-8,-8
1449106779618,3,0,3,-13,-8,13,-1,-6,-7,-5,-6
1449106779618,1,0,3,0,-18,-27,7,0,1,1,2
1449106779619,2,0,3,-4,10,-8,3,-6,-8,-8,-3
1449106779619,2,0,3,-3,-21,5,5,-1,1,4,3
1449106779666,0,0,3,3,-23,12,10,9,0,1,1
1449106779666,3,0,3,-4,-8,17,-14,-5,-1,-4,-5
1449106779666,3,0,3,3,0,5,11,12,8,2,-1
1449106779666,0,0,3,-5,-12,2,-7,-5,-1,-6,-6
1449106779667,2,0,3,-10,34,14,7,-2,-6,-11,-10
1449106779667,2,0,3,7,-42,-20,-6,-3,-9,-12,-4
1449106779668,3,0,3,-6,-17,-1,-14,-2,-1,3,1
1449106779668,3,0,3,4,8,13,-6,-11,-8,-6,-7
1449106779714,0,0,3,2,5,0,-3,1,3,9,7
1449106779714,0,0,3,2,-25,-12,4,7,6,2,4
1449106779715,1,0,3,6,6,-6,4,1,-1,-3,2
1449106779715,1,0,3,-2,-14,-5,-3,-4,-10,-22,-11
1449106779716,3,0,3,5,-14,-19,-2,3,8,5,6
1449106779716,3,0,3,0,4,8,10,4,-1,0,0
1449106779717,0,0,3,-2,10,23,18,3,-1,-8,-4
1449106779717,0,0,3,5,-9,25,-7,2,4,2,-1
1449106779763,1,0,3,6,2,15,8,8,-2,1,3
1449106779763,1,0,3,-4,16,26,6,5,0,2,1
1449106779764,2,0,3,-14,-44,-61,-17,-15,-11,-8,-3
1449106779764,2,0,3,-2,-5,4,-3,-7,-2,-4,-3
1449106779765,0,0,3,-3,-3,2,-4,0,1,1,1
1449106779765,0,0,3,6,28,21,6,-1,-2,-5,1
1449106779766,1,0,3,-2,-17,-41,-9,-5,0,0,-4
1449106779766,1,0,3,-4,-12,12,-2,-2,1,0,-5
1449106779812,2,0,3,3,-19,-18,6,-2,3,19,5
1449106779812,2,0,3,4,15,14,4,5,0,-18,3
1449106779813,3,0,3,2,9,-7,7,2,4,0,1
1449106779813,3,0,3,-6,-7,19,-5,-7,-3,6,-1
1449106779813,1,0,3,-15,4,29,8,6,2,1,-4
1449106779813,1,0,3,2,14,11,6,4,3,-1,-2
1449106779815,2,0,3,-5,5,61,1,-4,-5,-5,-3
1449106779815,2,0,3,3,-36,-73,-9,0,0,4,0
1449106779861,3,0,3,1,-1,-33,1,8,8,2,2
1449106779861,0,0,3,2,-4,-19,6,1,-1,-5,1
1449106779861,0,0,3,-1,-22,-5,-4,-3,-4,6,0
1449106779861,3,0,3,-1,-23,-17,-2,-9,-7,-4,-3
1449106779862,2,0,3,-3,-1,-17,-1,3,0,-5,-3
1449106779862,2,0,3,-3,-1,27,-1,1,3,2,-3
1449106779863,3,0,3,-2,1,6,-6,-4,-9,-9,-5
1449106779863,3,0,3,1,-1,-20,-4,-7,-7,1,2
1449106779910,0,0,3,-2,29,62,8,-4,-6,-13,-4
1449106779910,0,0,3,-2,-7,-25,-10,-3,1,7,-1
1449106779911,1,0,3,4,31,8,9,2,4,8,2
1449106779911,3,0,3,-4,9,-3,-9,-14,-10,-5,-4
1449106779911,1,0,3,0,-9,-16,1,4,3,-2,2
1449106779911,3,0,3,-9,10,17,-16,-10,-7,-7,-6
1449106779912,0,0,3,-1,17,15,1,2,5,2,0
1449106779912,0,0,3,-1,-8,-19,-1,-2,-6,-6,-4
1449106779958,1,0,3,3,-14,-13,1,4,3,5,7
1449106779958,1,0,3,4,1,-10,-7,-5,-2,2,-3
1449106779959,2,0,3,-7,19,13,1,-2,-5,-8,-6
1449106779959,2,0,3,4,1,-29,-9,-3,3,-1,8
1449106779960,0,0,3,5,-3,-4,11,2,-1,0,0
1449106779960,0,0,3,2,3,-32,-1,1,1,2,0
1449106779962,1,0,3,7,13,51,13,6,4,9,3
1449106779962,1,0,3,-5,-10,31,2,-2,-1,2,-4
1449106780007,2,0,3,2,3,-5,-11,-9,-8,-5,-1
1449106780007,2,0,3,-3,-39,-38,7,11,4,3,-3
1449106780008,3,0,3,-2,18,26,2,-3,-3,-1,0
1449106780008,3,0,3,-6,-12,-39,-13,-11,-10,-9,-7
1449106780009,1,0,3,10,5,39,-2,0,4,-5,-1
1449106780009,2,0,3,3,-2,8,4,4,5,7,1
1449106780009,2,0,3,4,-10,4,2,1,0,-1,3
1449106780009,1,0,3,-6,-31,-7,3,-2,-4,-8,-9
1449106780056,3,0,3,-3,-24,-47,-7,-3,-3,-3,-2
1449106780056,3,0,3,3,23,32,1,-1,-3,-7,-1
1449106780057,0,0,3,-5,-14,-16,-12,-9,-3,3,0
1449106780057,1,0,3,-4,8,-4,-7,-8,-4,2,0
1449106780057,0,0,3,-3,3,15,-3,-4,-6,-5,-7
1449106780057,1,0,3,-9,-32,-43,-3,-1,-3,-2,-2
1449106780058,2,0,3,4,4,-51,-4,8,7,2,0
1449106780058,2,0,3,2,-15,14,13,11,6,0,1
1449106780105,3,0,3,7,10,71,-5,-7,1,4,5
1449106780105,0,0,3,7,1,-25,6,0,2,7,3
1449106780105,3,0,3,1,-18,-10,9,7,-1,-9,-3
1449106780105,0,0,3,-15,0,31,-12,-15,-12,-9,-4
1449106780106,2,0,3,-2,8,22,-3,-4,-7,-12,-7
1449106780106,2,0,3,2,-5,3,0,0,2,4,2
1449106780107,3,0,3,2,1,-12,-1,-1,0,0,1
1449106780107,3,0,3,-2,-3,-4,-11,-1,2,0,2
1449106780153,0,0,3,5,-16,0,4,3,4,3,6
1449106780153,0,0,3,-5,3,3,-5,-3,1,10,1
1449106780154,1,0,3,0,-6,-11,-1,-1,1,7,2
1449106780154,1,0,3,-2,5,2,-5,-5,-4,-3,-6
1449106780155,3,0,3,3,-3,-7,1,5,-3,-4,-4
1449106780155,3,0,3,-13,1,-19,-5,4,5,1,-5
1449106780156,0,0,3,2,-1,3,-3,-3,2,2,4
1449106780156,0,0,3,-2,-13,-11,4,-1,1,0,-2
1449106780202,1,0,3,6,1,10,9,0,-6,-3,3
1449106780202,1,0,3,-9,-4,34,8,-1,-2,-7,-7
1449106780203,2,0,3,7,6,1,1,0,0,-2,1
1449106780203,2,0,3,-13,-9,-54,-19,-5,-4,-1,-4
1449106780204,1,0,3,2,-6,2,3,2,3,1,3
1449106780204,0,0,3,-7,0,3,-4,1,3,3,-2
1449106780204,0,0,3,4,-5,21,5,0,-3,-8,-2
1449106780204,1,0,3,-3,-28,-13,-5,-5,-8,-2,3
1449106780251,2,0,3,6,13,-18,0,-3,-4,-1,1
1449106780251,2,0,3,0,-1,26,8,-3,-5,-10,-6
1449106780252,3,0,3,-3,-6,-14,-2,-7,4,5,1
1449106780252,3,0,3,-3,6,3,0,11,8,6,0
1449106780259,2,0,3,-4,16,11,-2,-4,2,4,-7
1449106780259,1,0,3,0,-20,-6,-10,-8,-9,-9,-7
1449106780259,2,0,3,1,-24,-66,-2,4,1,4,6
1449106780259,1,0,3,-9,-18,-30,-5,-12,-9,-7,-2
1449106780299,3,0,3,-7,34,29,0,3,1,-6,-9
1449106780299,3,0,3,4,-3,-11,-5,-1,1,-3,-2
1449106780300,0,0,3,-4,-1,14,6,0,0,-6,1
1449106780300,0,0,3,-2,-8,-21,-12,-11,-2,5,1
1449106780301,2,0,3,-4,8,2,0,-3,-7,-6,-7
1449106780301,2,0,3,-1,9,24,2,0,2,0,1
1449106780302,3,0,3,1,3,10,1,6,2,-2,-2
1449106780302,3,0,3,4,15,-7,1,2,1,4,9
1449106780348,0,0,3,-14,-14,-7,-10,-7,-7,-9,-10
1449106780348,0,0,3,5,3,18,-1,-7,-6,-2,-2
1449106780349,1,0,3,-9,-15,-8,-7,-14,-10,-3,-6
1449106780349,1,0,3,4,-8,-3,7,10,8,7,6
1449106780350,3,0,3,-4,12,26,-5,-7,-10,-7,-4
1449106780350,3,0,3,6,-3,-18,-2,-6,1,0,0
1449106780351,0,0,3,-8,-9,5,-11,-7,-9,-5,-2
1449106780351,0,0,3,3,-8,-4,-1,5,4,8,2
1449106780397,1,0,3,-10,-30,-31,0,7,3,-4,-5
1449106780397,1,0,3,1,10,4,2,-2,-1,-3,1
1449106780398,2,0,3,1,12,4,-4,0,1,5,1
1449106780398,3,0,3,0,-8,-7,-9,-4,-4,-2,1
1449106780398,2,0,3,-1,-10,6,5,1,-4,0,3
1449106780398,3,0,3,8,-3,-3,7,-3,-2,0,4
1449106780399,0,0,3,-5,-19,-14,-3,-1,-1,-3,-2
1449106780399,0,0,3,-5,-17,21,1,2,3,-2,-5
1449106780446,1,0,3,2,-11,1,3,0,1,2,0
1449106780446,1,0,3,7,11,-11,-4,-4,-4,2,3
1449106780447,2,0,3,-5,6,-21,0,9,4,-2,-3
1449106780447,2,0,3,-9,-19,15,-7,-12,-6,-10,-6
1449106780448,0,0,3,5,4,-8,-2,-6,-3,2,0
1449106780448,1,0,3,-2,-20,-26,7,10,7,3,-1
1449106780448,0,0,3,1,-18,-2,-3,-11,-9,-7,-1
1449106780448,1,0,3,-5,12,22,-7,-13,-10,-3,-1
1449106780495,3,0,3,3,16,11,-1,-2,1,0,1
1449106780495,2,0,3,5,1,11,-4,-1,-1,5,4
1449106780495,3,0,3,-2,-7,-10,-4,-2,-3,-2,-2
1449106780495,2,0,3,-1,-6,-5,2,5,6,3,3
1449106780496,1,0,3,1,-18,8,8,8,7,8,3
1449106780496,1,0,3,-5,-10,-6,-21,-19,-13,-5,-2
1449106780497,2,0,3,-6,-13,-3,6,4,2,0,-5
1449106780497,2,0,3,-21,24,25,1,4,-5,-7,-13
1449106780543,3,0,3,1,-9,-18,-10,-9,-2,-1,-2
1449106780543,3,0,3,5,-8,2,1,0,-4,-6,-2
1449106780544,0,0,3,1,-8,22,-11,-3,5,6,-1
1449106780544,0,0,3,2,-18,-3,-5,-17,-13,-4,3
1449106780545,2,0,3,-1,11,-3,-3,-9,-6,-1,2
1449106780545,2,0,3,1,-5,-15,-10,-1,-1,-3,-2
1449106780546,3,0,3,1,-4,-13,4,5,2,6,0
1449106780546,3,0,3,1,-13,-14,-1,-3,-4,-6,0
1449106780592,0,0,3,0,-14,-1,3,2,-4,-6,-5
1449106780592,0,0,3,-1,8,30,-5,-5,4,4,1
1449106780593,3,0,3,-11,13,12,-2,-9,-6,-5,-4
1449106780593,1,0,3,1,-2,-13,-4,-7,-6,-8,-2
1449106780593,1,0,3,-4,-2,1,2,-1,1,-4,-2
1449106780593,3,0,3,2,3,-7,7,5,0,1,-2
1449106780594,0,0,3,-4,-6,2,3,-2,-5,-9,-5
1449106780594,0,0,3,-2,-25,-46,-6,-3,-3,-6,-3
1449106780641,1,0,3,10,39,12,-1,-6,0,6,3
1449106780641,1,0,3,-6,4,16,-3,5,1,-3,2
1449106780642,0,0,3,1,-3,-9,4,1,-2,2,3
1449106780642,2,0,3,5,0,-13,3,1,-3,-7,-1
1449106780642,2,0,3,1,-6,7,8,7,9,7,4
1449106780642,0,0,3,0,20,37,5,0,2,-1,-1
1449106780643,1,0,3,-4,14,-12,-6,-6,-4,-3,-7
1449106780643,1,0,3,-4,9,-12,-6,-3,-3,-5,-4
1449106780690,3,0,3,-1,-15,-25,-7,-4,-2,-5,2
1449106780690,2,0,3,-2,-4,12,-2,-4,-5,-1,-4
1449106780690,3,0,3,-2,-6,-2,8,8,5,0,-1
1449106780690,2,0,3,6,-6,-10,-4,4,6,8,10
1449106780691,1,0,3,-2,-21,-16,-13,-12,-10,-7,-3
1449106780691,1,0,3,-4,10,51,11,9,8,2,0
1449106780692,2,0,3,-6,-6,-33,-7,-6,-5,-4,-4
1449106780692,2,0,3,-1,-9,5,8,4,3,3,1
1449106780738,3,0,3,1,2,-3,0,0,0,2,-2
1449106780738,3,0,3,1,15,8,0,3,3,2,0
1449106780739,1,0,3,-3,4,77,15,-1,-3,-4,0
1449106780739,0,0,3,-2,-10,28,-16,-11,-7,-5,-2
1449106780739,1,0,3,4,-7,-42,-2,5,3,3,4
1449106780739,0,0,3,1,7,1,-6,-5,-4,-4,-5
1449106780741,2,0,3,-4,-8,-43,-12,0,-3,-7,-10
1449106780741,2,0,3,1,18,41,10,2,1,1,-1
1449106780788,0,0,4,7,-9,-20,-1,0,3,2,3
1449106780788,3,0,4,-2,-11,-5,-4,-8,-2,5,-1
1449106780788,3,0,4,0,-15,-21,0,1,-1,-3,-2
1449106780788,0,0,4,-11,-8,17,-6,-11,-5,-5,-6
1449106780789,2,0,4,-8,0,6,10,7,-4,-5,-8
1449106780789,2,0,4,-1,-11,-24,-5,-7,1,6,6
1449106780789,3,0,4,0,-5,23,2,-2,-8,-6,-3
1449106780789,3,0,4,-4,-12,-7,-2,-4,2,1,-2
1449106780836,1,0,4,-3,-20,-8,-2,1,0,-4,-3
1449106780836,1,0,4,1,3,-20,-4,-7,-7,-4,-1
1449106780836,0,0,4,1,9,-1,-1,0,2,1,1
1449106780836,0,0,4,0,-7,7,-4,-1,0,-3,2
1449106780837,3,0,4,-3,-36,-41,-9,-5,-4,-5,-2
1449106780837,3,0,4,1,-3,15,-2,1,2,-4,-2
1449106780838,0,0,4,9,-1,-27,-8,-3,-2,3,6
1449106780838,0,0,4,0,6,19,10,-2,-5,-8,-8
1449106780884,1,0,4,-6,-25,48,2,-3,0,0,-2
1449106780884,1,0,4,1,9,-4,13,18,9,6,3
1449106780885,2,0,4,-2,-5,-29,2,-3,-2,0,-1
1449106780885,2,0,4,-4,-8,0,-6,0,-5,-6,-3
1449106780886,0,0,4,-8,-6,12,-9,-3,-3,3,-3
1449106780886,0,0,4,-2,-5,-21,4,-2,-4,3,-4
1449106780887,1,0,4,-7,0,9,-5,-8,-10,-7,-5
1449106780887,1,0,4,3,1,43,1,0,-3,-2,2
1449106780934,3,0,4,-4,-32,-16,7,10,2,1,-2
1449106780934,2,0,4,2,-2,-39,-8,-3,2,-2,-1
1449106780934,2,0,4,3,-6,44,-1,-3,-2,1,5
1449106780934,3,0,4,-4,36,18,-5,-8,-4,-2,-1
1449106780935,1,0,4,0,2,-26,-9,-2,2,4,2
1449106780935,1,0,4,5,0,14,3,-8,-7,-5,-1
1449106780936,2,0,4,5,-14,17,5,5,2,4,7
1449106780936,2,0,4,-1,5,-7,10,11,9,6,0
1449106781031,0,0,4,-8,-11,31,-3,-8,-4,-2,-5
1449106781031,3,0,4,-7,-11,-4,-1,-2,-3,-4,-5
1449106781031,3,0,4,0,8,-10,-4,-1,0,-6,0
1449106781031,0,0,4,6,6,-8,-7,-7,-6,-2,1
1449106781032,2,0,4,0,9,-4,3,-2,-7,-7,-11
1449106781032,2,0,4,-1,-10,-4,0,1,1,0,-2
1449106781033,3,0,4,5,-12,4,4,7,2,-1,5
1449106781033,3,0,4,-2,4,15,2,-7,4,3,5
1449106781080,0,0,4,-3,5,-12,-9,-4,-1,5,0
1449106781080,1,0,4,-5,-4,25,3,-7,-8,-7,-7
1449106781080,1,0,4,4,-9,-43,-7,0,2,3,3
1449106781080,0,0,4,-1,-1,-3,9,4,-3,-2,-1
1449106781081,0,0,4,3,-9,3,4,4,0,-1,-4
1449106781081,0,0,4,3,1,3,0,-1,2,3,8
1449106781082,1,0,4,0,-14,-22,-3,3,6,0,0
1449106781082,1,0,4,2,11,1,-3,1,-6,-3,-3
1449106781129,3,0,4,-2,1,-28,-6,-4,2,1,0
1449106781129,2,0,4,2,24,14,8,4,4,4,0
1449106781129,2,0,4,-5,-22,-30,-15,-7,-3,-3,-7
1449106781129,3,0,4,3,19,34,8,0,-4,-3,2
1449106781130,0,0,4,-1,-2,-15,0,-5,-2,-5,0
1449106781130,0,0,4,-3,-4,5,-2,2,-2,-6,-2
1449106781131,1,0,4,-2,-16,-13,-3,1,2,-2,4
1449106781131,1,0,4,1,-3,23,3,3,4,15,5
1449106781177,2,0,4,4,-1,1,-1,-7,-4,5,7
1449106781177,2,0,4,-1,-11,8,-1,0,4,2,-1
1449106781178,3,0,4,-2,-7,3,-6,1,-1,-10,-1
1449106781178,3,0,4,-10,-13,-6,0,2,-3,-3,-14
1449106781179,2,0,4,2,-6,-1,0,-4,-4,1,3
1449106781179,1,0,4,5,-9,-8,-1,-1,4,2,-1
1449106781179,2,0,4,-3,5,3,-5,-2,-2,-3,-2
1449106781179,1,0,4,-11,-18,-4,-5,-6,-2,0,-5
1449106781226,0,0,4,-1,-10,-6,-4,-7,-4,-7,-3
1449106781226,3,0,4,4,-7,-12,3,5,2,6,2
1449106781226,0,0,4,-5,-10,-6,-5,-7,-9,-1,-8
1449106781226,3,0,4,-1,-3,5,0,1,2,-4,1
1449106781227,2,0,4,5,-30,14,9,10,-13,-10,21
1449106781227,2,0,4,-17,6,-2,0,2,29,11,-22
1449106781228,3,0,4,-3,3,-4,-7,-6,-3,-11,-9
1449106781228,3,0,4,10,-5,3,-1,4,-14,-14,4
1449106781274,0,0,4,11,26,22,8,6,2,6,21
1449106781274,0,0,4,-10,-30,-15,-4,-3,-7,2,-7
1449106781275,1,0,4,-7,-6,11,5,2,11,-1,-1
1449106781275,1,0,4,-9,6,6,0,0,15,12,-3
1449106781276,3,0,4,-7,8,-2,-7,-10,-3,-9,-28
1449106781276,3,0,4,6,-9,-2,-3,1,-21,-22,8
1449106781277,0,0,4,8,-6,4,-1,-8,4,17,-11
1449106781277,0,0,4,-4,-19,13,4,4,-14,-9,12
1449106781323,1,0,4,6,-3,-2,4,7,15,13,26
1449106781323,1,0,4,-7,-3,16,3,1,17,8,-8
1449106781324,0,0,4,-5,1,-11,-5,-7,-12,-13,-5
1449106781324,2,0,4,-10,2,6,-5,-1,3,-5,-5
1449106781324,0,0,4,11,-6,7,8,11,5,3,7
1449106781324,2,0,4,-1,-15,22,-2,-4,-6,-8,-16
1449106781326,1,0,4,-6,5,-12,-4,-5,-11,-13,-7
1449106781326,1,0,4,-14,-9,-10,-3,-1,5,6,-7
1449106781372,2,0,4,8,20,-10,-7,-8,-5,-7,0
1449106781372,2,0,4,-9,-10,-4,-3,-3,0,0,-1
1449106781373,3,0,4,0,4,-7,0,-4,-11,-6,-8
1449106781373,3,0,4,-11,-10,-2,1,2,7,1,-3
1449106781373,1,0,4,4,-2,-3,-4,-5,-3,-4,0
1449106781373,1,0,4,0,0,-5,-6,-7,-3,0,-3
1449106781374,2,0,4,-10,6,-5,0,0,17,2,1
1449106781374,2,0,4,3,-11,1,0,4,-12,-3,4
1449106781421,0,0,4,0,11,4,3,-1,1,2,2
1449106781421,3,0,4,-12,-2,-4,1,-6,-12,-9,-8
1449106781421,0,0,4,-2,0,-1,0,2,-2,-1,-3
1449106781421,3,0,4,11,11,-4,-2,-3,-1,0,2
1449106781422,2,0,4,3,-1,4,-2,-1,-2,5,3
1449106781422,2,0,4,-1,-7,0,0,-1,5,1,-1
1449106781423,3,0,4,-1,-10,-2,2,5,-2,-11,-2
1449106781423,3,0,4,3,4,-1,-3,-8,3,4,2
1449106781469,0,0,4,-4,-5,-1,-3,-2,-2,-4,-2
1449106781469,0,0,4,1,3,3,3,1,-5,3,1
1449106781470,1,0,4,-7,6,-2,-2,-1,-5,-1,-3
1449106781470,1,0,4,9,-5,-2,0,1,9,2,-1
1449106781471,2,0,4,-2,8,-1,-4,-3,-2,-2,0
1449106781471,2,0,4,-4,0,-5,-1,-5,0,-3,-2
1449106781472,3,0,4,6,-2,-1,0,2,-4,-1,1
1449106781472,3,0,4,-1,3,1,1,2,1,2,1
1449106781518,0,0,4,5,8,0,-6,-8,-10,-7,-3
1449106781518,0,0,4,-6,-10,-1,2,2,7,-3,-1
1449106781519,1,0,4,2,13,1,-1,1,7,13,15
1449106781519,1,0,4,-2,-3,-1,0,-1,3,7,-5
1449106781522,0,0,4,5,1,2,2,4,12,1,-10
1449106781522,3,0,4,-1,-2,-3,-2,-4,-3,-4,-3
1449106781522,0,0,4,4,-1,1,-3,-5,1,5,1
1449106781522,3,0,4,-11,-23,-3,5,6,-30,-23,-10
1449106781567,1,0,4,0,-3,3,-1,-3,0,7,10
1449106781567,1,0,4,-17,-12,0,2,2,-10,-10,-10
1449106781568,0,0,4,0,0,3,1,5,5,2,1
1449106781568,2,0,4,4,-4,-1,1,3,4,1,3
1449106781568,2,0,4,-9,-6,-4,-3,-4,-13,-9,-13
1449106781568,0,0,4,2,-21,-2,0,-5,-3,-1,-3
1449106781569,1,0,4,-4,-1,1,1,1,-5,-7,-1
1449106781569,1,0,4,4,0,2,-1,-3,9,7,4
1449106781616,2,0,4,-2,-7,1,1,-3,-9,-5,-1
1449106781616,2,0,4,-6,-13,-5,-4,-3,-6,-1,-4
1449106781617,1,0,4,-4,-16,-7,-7,-8,-10,-2,0
1449106781617,1,0,4,0,-8,4,0,1,15,-1,-10
1449106781617,3,0,4,-3,-2,-2,-2,-1,8,2,1
1449106781617,3,0,4,0,-11,-1,2,6,0,-2,-5
1449106781618,2,0,4,9,4,4,2,0,-1,5,4
1449106781618,2,0,4,-8,14,-1,0,5,4,0,-5
1449106781665,3,0,4,-5,-12,-5,-3,-4,-3,3,2
1449106781665,3,0,4,0,11,2,1,1,2,-2,-7
1449106781666,2,0,4,-1,-8,-1,-2,-4,-5,1,1
1449106781666,0,0,4,4,5,4,-3,-3,-2,1,4
1449106781666,0,0,4,-10,-9,1,1,0,1,-1,-8
1449106781666,2,0,4,-1,-3,-2,-3,-3,-4,-3,-6
1449106781667,3,0,4,2,-6,-1,0,4,4,4,17
1449106781667,3,0,4,2,-2,-1,-2,-5,-1,10,-1
1449106781714,0,0,4,1,-3,-1,-3,-3,-3,1,8
1449106781714,0,0,4,-1,-10,-1,3,4,-7,-11,-8
1449106781715,3,0,4,7,15,1,-3,-4,-8,-1,5
1449106781715,1,0,4,0,2,0,-3,-5,3,0,5
1449106781715,3,0,4,-4,2,-1,3,7,3,-2,-5
1449106781715,1,0,4,-3,-9,-4,-3,0,11,-1,-10
1449106781716,0,0,4,-7,-7,0,-2,-1,6,2,-4
1449106781716,0,0,4,-13,-14,-8,0,1,5,-2,-5
1449106781762,1,0,4,3,4,2,-3,0,-2,-4,-3
1449106781762,1,0,4,1,-7,2,-1,-4,-6,-3,-7
1449106781763,2,0,4,-1,-5,-4,-6,-9,-9,-9,2
1449106781763,2,0,4,-6,-2,-11,-2,-3,2,2,-4
1449106781764,0,0,4,6,5,0,2,4,6,1,0
1449106781764,0,0,4,8,12,3,0,-5,-3,-1,9
1449106781765,1,0,4,-13,4,-3,-6,-11,-12,2,-16
1449106781765,1,0,4,2,0,-2,0,2,-14,-16,10
1449106781811,2,0,4,2,4,0,2,4,14,10,2
1449106781811,2,0,4,-1,4,2,4,6,21,13,1
1449106781812,3,0,4,1,5,-1,-4,-6,-18,-14,-5
1449106781812,0,0,4,2,-2,1,-2,-2,-4,-3,-4
1449106781812,3,0,4,-1,5,-3,-1,2,-2,2,-1
1449106781812,0,0,4,-7,-2,-4,1,0,-5,-7,-4
1449106781813,1,0,4,-2,6,-2,2,3,14,10,2
1449106781813,1,0,4,2,-1,2,1,2,3,4,3
1449106781859,2,0,4,-12,-6,-1,-2,-1,-1,-6,-6
1449106781859,2,0,4,2,7,1,-4,-1,-7,-3,-4
1449106781860,3,0,4,-2,-5,-5,-2,-5,4,2,5
1449106781860,3,0,4,2,2,-4,2,8,8,3,3
1449106781861,1,0,4,-4,-3,0,2,1,-18,-10,-2
1449106781861,1,0,4,-5,-12,-5,-5,-7,0,-2,-1
1449106781862,2,0,4,2,-2,0,-1,0,-5,4,0
1449106781862,2,0,4,-5,-1,0,-1,0,3,3,-2
1449106781909,0,0,4,-2,-7,0,2,-2,-6,-1,-5
1449106781909,3,0,4,1,-12,-3,0,-1,1,8,5
1449106781909,0,0,4,1,0,0,-1,-5,-5,-2,1
1449106781909,3,0,4,7,4,1,-1,5,7,-1,4
1449106781910,2,0,4,1,-14,-3,-3,-6,-6,-3,5
1449106781910,2,0,4,2,-6,-1,-2,3,2,2,1
1449106781911,3,0,4,-3,0,3,0,-1,2,2,-5
1449106781911,3,0,4,-3,-2,-4,-2,-2,-6,-4,-3
1449106781957,0,0,4,-13,7,-2,-2,-1,6,7,-3
1449106781957,0,0,4,5,-11,2,0,2,1,-1,5
1449106781958,3,0,4,-6,-21,-2,-1,-1,-6,-9,-13
1449106781958,1,0,4,-2,-4,-3,-3,-8,-3,-8,-13
1449106781958,1,0,4,3,-15,0,-2,-4,-16,-13,-5
1449106781958,3,0,4,-7,-15,-9,-1,1,9,9,-1
1449106781959,0,0,4,-1,2,-3,-5,-6,4,0,0
1449106781959,0,0,4,-5,-16,-2,-2,-2,-7,-10,-8
1449106782006,2,0,4,1,-9,-3,-3,-4,-7,0,3
1449106782006,1,0,4,-2,-7,-2,2,0,2,1,-10
1449106782006,2,0,4,-5,-4,-3,-2,-4,2,2,-5
1449106782006,1,0,4,5,1,2,1,1,-7,1,8
1449106782007,0,0,4,-1,-4,0,5,4,3,0,-1
1449106782007,0,0,4,3,1,-2,-3,-3,-3,-5,-5
1449106782008,1,0,4,2,3,-3,-3,-10,-10,-7,-3
1449106782008,1,0,4,-4,-17,-3,-4,-3,1,4,6
1449106782055,2,0,4,0,4,-8,-8,-3,1,-8,-19
1449106782055,2,0,4,10,12,7,4,1,-2,4,1
1449106782056,3,0,4,-6,-7,-3,-6,-6,6,13,17
1449106782056,1,0,4,-11,6,0,-2,-1,3,4,-8
1449106782056,3,0,4,0,-13,0,2,1,-13,-12,0
1449106782056,1,0,4,-1,-2,3,3,3,17,2,-8
1449106782057,2,0,4,3,3,1,0,-1,-5,-2,4
1449106782057,2,0,4,-4,-3,-6,-6,-10,-7,-3,2
1449106782103,3,0,4,1,-6,-5,3,1,0,3,8
1449106782103,3,0,4,2,0,-1,-3,-1,-3,-4,-2
1449106782104,0,0,4,-3,0,2,-5,-3,-2,0,4
1449106782104,0,0,4,-4,-12,-4,1,0,-3,-6,-10
1449106782105,2,0,4,-1,-7,-2,3,0,2,4,5
1449106782105,2,0,4,-9,-14,-6,-1,4,-2,-4,-8
1449106782106,3,0,4,-1,-8,-4,-4,-4,-5,-5,-10
1449106782106,3,0,4,0,4,-7,-7,-9,-7,-5,-3
1449106782153,0,0,4,-4,7,1,0,2,15,0,2
1449106782153,0,0,4,1,-12,3,3,2,-6,8,11
1449106782154,1,0,4,-5,-11,-2,0,0,-8,-7,-9
1449106782154,1,0,4,2,11,0,-5,-6,-5,-4,-1
1449106782155,2,0,4,2,4,-6,1,1,-2,-4,-7
1449106782155,2,0,4,-4,1,6,-1,0,-4,0,-7
1449106782156,3,0,4,-4,16,3,1,3,12,8,-9
1449106782156,3,0,4,2,5,2,1,2,-1,3,14
1449106782207,0,0,4,3,-6,-29,-1,-3,-11,0,4
1449106782207,0,0,4,-4,-5,-18,-6,-7,4,-3,-3
1449106782207,1,0,4,-1,19,43,8,-1,-1,-4,-7
1449106782207,1,0,4,4,0,20,-1,1,-3,2,11
1449106782208,3,0,4,-4,-4,-1,0,-3,-1,2,4
1449106782208,0,0,4,-2,3,-8,-7,-11,-2,1,17
1449106782208,3,0,4,6,-14,-31,0,6,5,5,4
1449106782208,0,0,4,0,0,14,2,4,2,-2,-13
1449106782250,1,0,4,0,-10,-3,4,8,6,7,-1
1449106782250,2,0,4,-3,-5,7,-1,-6,-9,-4,-1
1449106782250,2,0,4,2,6,-17,-6,-4,-8,-7,1
1449106782250,1,0,4,-1,-4,-7,-5,-1,-12,-16,-5
1449106782251,0,0,4,-2,-11,2,-2,-1,-4,-2,-3
1449106782251,0,0,4,-4,3,31,4,-2,-3,-2,-7
1449106782252,1,0,4,1,-6,-6,2,-2,2,4,3
1449106782252,1,0,4,0,-17,-34,-6,-3,-3,-2,4
1449106782299,2,0,4,4,-4,-11,-10,-6,-10,-5,1
1449106782299,2,0,4,-5,9,36,6,6,3,-5,-16
1449106782300,3,0,4,-3,-7,-6,3,3,2,-4,2
1449106782300,3,0,4,-1,2,27,7,8,7,3,-3
1449106782301,1,0,4,-1,-10,5,1,3,-3,5,8
1449106782301,2,0,4,7,-6,-3,1,0,-6,-3,8
1449106782301,1,0,4,-6,-6,-14,-5,-3,5,7,-7
1449106782301,2,0,4,1,-4,-2,6,13,19,9,2
1449106782347,3,0,4,1,8,10,1,-3,-6,-11,-13
1449106782347,3,0,4,1,-8,-7,-3,-6,3,3,7
1449106782348,2,0,4,1,-16,-4,0,-3,-3,-3,-8
1449106782348,0,0,4,2,-1,17,3,-3,0,1,2
1449106782348,0,0,4,-3,-10,-22,-5,-6,-1,2,11
1449106782348,2,0,4,-1,-3,0,3,4,0,-2,6
1449106782350,3,0,4,-1,-14,-11,-4,-9,-11,-7,-1
1449106782350,3,0,4,2,12,5,-3,-2,1,2,8
1449106782396,0,0,4,-1,4,-15,-7,-5,-1,1,-5
1449106782396,0,0,4,-4,-14,3,6,12,5,8,14
1449106782396,1,0,4,0,-4,8,1,0,-4,-7,-14
1449106782396,1,0,4,6,7,4,4,2,5,11,8
1449106782397,3,0,4,-5,-12,3,0,3,8,7,4
1449106782397,3,0,4,-2,5,-16,-6,-1,-7,-14,-3
1449106782398,0,0,4,9,-4,27,-1,-2,14,6,-4
1449106782398,0,0,4,-11,-15,-38,-6,-2,-8,-8,3
1449106782445,2,0,4,-1,2,0,5,4,7,3,2
1449106782445,1,0,4,-14,-16,9,-2,-5,-17,-14,-23
1449106782445,2,0,4,8,-4,-11,-1,6,10,5,1
1449106782445,1,0,4,-8,1,22,-4,-6,-7,-12,1
1449106782446,0,0,4,2,4,5,2,7,13,7,-6
1449106782446,0,0,4,-5,-7,3,-2,-4,-5,-4,-6
1449106782447,1,0,4,2,-15,-19,1,-2,-2,4,13
1449106782447,1,0,4,3,13,2,-1,-6,-7,4,-11
1449106782493,2,0,4,4,-14,-7,4,2,5,4,7
1449106782493,2,0,4,-9,-2,28,6,9,9,3,-7
1449106782494,1,0,4,12,-7,32,9,0,-2,-1,7
1449106782494,3,0,4,1,7,11,-2,0,1,-5,-4
1449106782494,3,0,4,0,-19,-35,-3,-5,1,1,5
1449106782494,1,0,4,0,-4,2,1,8,6,2,2
1449106782496,2,0,4,3,-13,-34,6,1,8,6,5
1449106782496,2,0,4,-5,13,27,-6,-7,-15,-4,-5
1449106782542,3,0,4,-7,8,-38,-9,-2,0,0,-7
1449106782542,3,0,4,-1,8,7,2,3,0,-5,-4
1449106782543,0,0,4,10,14,19,5,-2,0,1,5
1449106782543,0,0,4,-4,-8,-3,-5,-3,-4,-8,-6
1449106782543,1,0,4,0,6,-8,4,6,5,3,0
1449106782543,1,0,4,-3,-1,-15,1,2,2,-3,-2
1449106782544,2,0,4,-1,6,5,-4,-5,0,-2,0
1449106782544,2,0,4,-11,-3,-11,0,-5,-8,-4,-7
1449106782591,3,0,4,3,14,59,14,12,10,7,2
1449106782591,3,0,4,-3,-1,-15,-3,-2,3,0,-2
1449106782592,2,0,4,-3,19,36,11,5,2,3,-2
1449106782592,0,0,4,-1,-4,-21,-6,-1,-9,-5,2
1449106782592,0,0,4,11,7,2,6,-2,-4,2,9
1449106782592,2,0,4,0,15,23,-13,-5,-6,-6,-4
1449106782593,3,0,4,2,-10,-1,2,3,-2,-4,3
1449106782593,3,0,4,1,2,23,-5,-10,-8,-8,-3
1449106782639,0,0,4,-6,11,61,11,-3,6,7,-7
1449106782639,0,0,4,4,-18,-88,-13,1,2,3,7
1449106782688,1,0,4,1,33,39,20,-3,-6,-3,-6
1449106782688,1,0,4,-5,0,-9,-18,-9,-7,-5,2
1449106782689,3,0,4,0,-17,-52,5,6,11,11,4
1449106782689,3,0,4,5,-29,-39,-46,-7,0,8,9
1449106782690,0,0,4,9,5,11,5,5,4,2,4
1449106782690,0,0,4,0,13,64,43,14,6,0,-6
1449106782691,1,0,4,-4,-39,-16,28,8,4,1,0
1449106782691,1,0,4,9,28,43,-9,-2,1,2,4
1449106782737,2,0,4,-14,6,-92,-42,-21,-14,-11,-10
1449106782737,2,0,4,10,-35,19,7,7,0,0,4
1449106782738,1,0,4,7,-7,-59,-11,-5,-9,-6,-2
1449106782738,0,0,4,-1,1,-18,11,3,1,-1,3
1449106782738,0,0,4,-3,23,-2,35,15,10,12,4
1449106782738,1,0,4,10,-5,-15,-31,0,4,-4,-2
1449106782740,1,0,4,5,16,11,8,-15,-17,-4,0
1449106782740,1,0,4,-4,5,-23,-48,1,10,5,0
1449106782786,2,0,4,9,-27,37,41,27,9,4,6
1449106782786,2,0,4,-17,-6,-28,10,-9,-4,-5,-5
1449106782787,3,0,4,-5,3,28,31,14,5,2,-1
1449106782787,2,0,4,8,56,-13,-18,-1,11,10,11
1449106782787,2,0,4,-3,-21,23,6,-10,-15,-15,-10
1449106782787,3,0,4,3,-29,11,18,-6,-7,-7,0
1449106782788,3,0,4,-5,-15,29,12,6,-1,0,0
1449106782788,3,0,4,1,-30,-41,-9,0,2,1,1
1449106782835,0,0,4,13,15,-6,2,7,9,5,18
1449106782835,0,0,4,-13,-3,-22,-14,-13,-8,-5,-17
1449106782837,1,0,4,8,-4,-12,11,5,1,1,3
1449106782837,1,0,4,4,15,24,-3,3,1,-4,-3
1449106782841,3,0,4,3,-27,-58,13,12,11,8,5
1449106782841,0,0,4,-5,23,95,5,-11,-9,-7,-9
1449106782841,3,0,4,-4,2,-24,-3,-1,2,2,3
1449106782841,0,0,4,1,-5,-7,-6,0,1,2,0
1449106782883,1,0,4,-1,-4,-41,14,17,13,12,7
1449106782883,1,0,4,0,5,-1,-7,-13,-9,-10,-4
1449106782884,2,0,4,-3,1,16,0,-5,-6,-3,-7
1449106782884,2,0,4,-3,-36,-13,-18,-9,-9,-14,-1
1449106782885,3,0,4,3,7,2,0,-2,-1,9,5
1449106782885,3,0,4,-5,0,-6,-5,-3,-2,-3,-4
1449106782886,0,0,4,-3,33,33,9,2,-4,-8,-3
1449106782886,0,0,4,8,-17,-24,-3,0,1,0,4
1449106782932,1,0,4,-3,6,23,8,-3,-5,-6,-3
1449106782932,1,0,4,-3,-1,-48,-14,-2,-3,-4,-3
1449106782933,0,0,4,1,9,6,-10,7,1,-5,-5
1449106782933,0,0,4,1,-5,22,27,-8,-6,-2,-2
1449106782933,2,0,4,-1,3,-20,-9,-8,-4,-4,-6
1449106782933,2,0,4,-4,11,29,1,2,-1,-4,-3
1449106782934,1,0,4,1,-1,5,9,13,11,5,4
1449106782934,1,0,4,-7,-2,8,7,-1,-3,-4,-1
1449106782981,2,0,4,-11,-11,-24,-14,3,3,-2,-4
1449106782981,3,0,4,3,15,2,-7,-10,-7,-5,0
1449106782981,2,0,4,9,6,-26,3,1,7,7,4
1449106782981,3,0,4,-6,-5,19,-8,-6,-4,-1,0
