timestamp,package_number,gesture_name,gesture_number,s1,s2,s3,s4,s5,s6,s7,s8
1449106174729,2,0,0,-3,1,-5,1,-5,-5,-4,-13
1449106174729,2,0,0,-2,-4,0,1,2,0,-1,0
1449106174730,3,0,0,0,7,-12,-9,0,2,0,-2
1449106174730,3,0,0,-3,-6,-9,-1,1,-2,-3,-1
1449106174731,0,0,0,9,1,0,-6,-2,-4,1,12
1449106174731,0,0,0,-3,-4,-14,-3,0,-1,-3,-8
1449106174776,1,0,0,-2,0,-9,0,0,-2,0,-2
1449106174776,1,0,0,1,8,9,2,-1,1,0,0
1449106174777,2,0,0,-1,-7,0,2,2,1,-1,1
1449106174777,2,0,0,-1,4,-5,-9,-1,4,3,4
1449106174778,0,0,0,-3,-6,0,-1,-4,-5,-3,-2
1449106174778,0,0,0,4,1,7,1,-2,-3,-2,5
1449106174779,1,0,0,-3,2,-3,7,4,3,0,-9
1449106174779,1,0,0,-1,-5,-6,-7,0,0,3,14
1449106174825,2,0,0,0,-5,1,4,-3,-4,-5,-2
1449106174825,2,0,0,-1,0,-5,-4,-1,-3,-6,-12
1449106174826,3,0,0,0,-3,-18,-8,-5,-3,-3,-5
1449106174826,3,0,0,2,3,6,0,-1,1,3,14
1449106174827,1,0,0,-3,-5,-7,-1,-2,-1,-4,-8
1449106174827,1,0,0,-1,9,24,6,0,0,1,-8
1449106174828,2,0,0,5,7,-1,5,0,-2,-1,3
1449106174828,2,0,0,0,1,5,1,-2,-3,2,11
1449106174874,3,0,0,2,3,-4,0,0,-1,0,2
1449106174874,3,0,0,-6,-20,-33,-16,-5,-2,-2,-4
1449106174875,0,0,0,3,-2,-4,2,1,0,0,-5
1449106174875,2,0,0,3,11,55,15,10,2,2,5
1449106174875,0,0,0,-8,-2,21,0,1,2,0,-4
1449106174875,2,0,0,-2,-1,-45,-14,-7,-4,-4,-9
1449106174876,3,0,0,-6,-4,8,5,-4,-6,-7,-1
1449106174876,3,0,0,-3,-9,-28,-7,-1,-1,-1,-1
1449106174923,0,0,0,2,5,29,11,1,0,2,-2
1449106174923,0,0,0,7,3,-20,-11,-1,2,3,9
1449106174924,1,0,0,-15,-12,-22,-1,-3,-3,-7,-29
1449106174924,3,0,0,5,2,-3,-6,2,2,3,8
1449106174924,3,0,0,-3,2,21,5,4,5,2,-3
1449106174924,1,0,0,3,10,41,10,1,-1,-1,3
1449106174925,0,0,0,-1,3,-3,-1,-8,-4,-3,-2
1449106174925,0,0,0,0,-2,-3,0,1,-1,-1,-3
1449106174971,1,0,0,1,1,7,3,0,2,0,-3
1449106174971,1,0,0,5,2,13,0,1,0,3,3
1449106174972,2,0,0,0,-1,-8,7,4,1,-1,2
1449106174972,2,0,0,1,-3,-9,-6,4,4,1,2
1449106174973,0,0,0,-4,-10,5,4,3,3,2,0
1449106174973,0,0,0,0,7,-2,3,3,1,0,-1
1449106174974,1,0,0,-1,-3,-19,-11,-3,-1,-1,-3
1449106174974,1,0,0,2,9,17,-1,-3,-3,-2,3
1449106175020,2,0,0,-3,-5,-20,2,-3,-1,-5,-5
1449106175020,2,0,0,-1,0,-3,-1,-2,-2,-2,-3
1449106175021,3,0,0,6,9,8,-4,2,0,0,2
1449106175021,1,0,0,4,1,-16,-11,-8,-5,0,1
1449106175021,1,0,0,-1,-1,-4,4,1,2,1,3
1449106175021,3,0,0,-3,-4,-12,-1,-1,1,0,-3
1449106175023,2,0,0,-1,5,27,5,2,4,2,-3
1449106175023,2,0,0,9,2,1,-2,-6,-7,-2,6
1449106175069,3,0,0,-6,-17,-36,-8,4,0,0,-2
1449106175069,3,0,0,-7,6,1,4,-1,-2,-1,-4
1449106175070,1,0,0,8,8,4,8,3,3,4,3
1449106175070,0,0,0,-20,-14,12,-5,-11,-8,-7,-10
1449106175070,1,0,0,-9,1,45,16,1,-4,-7,-7
1449106175070,0,0,0,-1,-7,-24,-3,3,5,3,-5
1449106175071,2,0,0,6,2,2,-2,-1,-3,0,3
1449106175071,2,0,0,-2,0,-2,1,1,-2,-6,-9
1449106175118,3,0,0,-1,9,-33,-9,4,5,5,5
1449106175118,0,0,0,-12,1,28,7,-2,-6,-4,-11
1449106175118,0,0,0,-10,-15,1,-2,0,0,3,3
1449106175118,3,0,0,23,13,-5,-4,0,2,7,14
1449106175119,2,0,0,19,11,9,-3,2,5,9,21
1449106175119,2,0,0,-5,7,14,5,2,4,5,-7
1449106175126,3,0,0,-33,-18,-2,0,-5,-4,-7,-16
1449106175126,3,0,0,-1,18,8,3,4,6,9,6
1449106175166,0,0,0,105,48,-1,9,2,3,6,35
1449106175166,0,0,0,-73,-93,-49,-34,-21,-25,-36,-55
1449106175167,1,0,0,-42,-34,20,3,-1,-1,-5,-16
1449106175167,1,0,0,8,-7,-16,-19,-7,-7,-12,-10
1449106175168,3,0,0,36,15,1,-5,-4,-2,1,18
1449106175168,3,0,0,-36,-24,-1,8,-6,-8,-9,-20
1449106175169,0,0,0,91,25,-19,-11,2,3,2,6
1449106175169,0,0,0,-21,30,44,15,6,5,3,-1
1449106175215,1,0,0,-36,-11,52,-1,-8,-8,-1,7
1449106175215,1,0,0,22,0,-20,-12,-1,7,17,5
1449106175216,2,0,0,28,-30,-51,-5,1,-4,-19,9
1449106175216,2,0,0,-60,7,16,-10,-7,-7,-20,-33
1449106175217,1,0,0,68,30,3,-6,-8,-2,-10,27
1449106175217,1,0,0,-3,20,10,-50,-11,6,7,-13
1449106175217,0,0,0,-11,-27,25,2,-1,0,-1,24
1449106175217,0,0,0,29,12,-41,-1,-2,-3,-9,-8
1449106175264,2,0,0,-103,-41,-78,-1,-26,-5,-22,-22
1449106175264,3,0,0,-21,-16,-21,15,-3,-18,-59,-26
1449106175264,3,0,0,-69,13,-2,-23,-24,-4,29,-3
1449106175264,2,0,0,-25,-17,43,40,34,6,-3,-9
1449106175265,1,0,0,30,-5,12,109,62,-3,-26,-3
1449106175265,1,0,0,-11,-8,24,-17,-35,-30,-70,-39
1449106175266,2,0,0,46,53,43,21,-21,9,28,33
1449106175266,2,0,0,5,-24,-27,35,51,20,10,-15
1449106175312,3,0,0,-70,-8,-24,-6,-5,14,-2,-25
1449106175312,3,0,0,30,-2,-4,-18,14,-19,-50,1
1449106175313,0,0,0,-4,19,29,-26,-59,-25,24,-1
1449106175313,0,0,0,54,20,33,62,68,31,12,27
1449106175314,2,0,0,-2,19,-5,-60,-26,-3,36,-3
1449106175314,2,0,0,64,39,-5,-5,-15,-2,13,29
1449106175315,3,0,0,13,-5,-11,-27,-18,-8,-4,-23
1449106175315,3,0,0,-35,-12,2,-18,4,36,58,45
1449106175361,0,0,0,-21,19,7,-60,18,7,47,21
1449106175361,0,0,0,0,-7,11,-27,-20,-12,-44,-29
1449106175362,1,0,0,67,23,2,4,9,4,14,6
1449106175362,1,0,0,-34,-30,-11,49,32,-14,-47,-41
1449106175363,3,0,0,-23,-5,-5,-42,-16,-16,6,15
1449106175363,3,0,0,19,52,24,-48,5,-5,-38,-28
1449106175364,0,0,0,7,39,22,45,2,-10,-14,-4
1449106175364,0,0,0,-73,-98,-32,-20,-12,-2,-2,-13
1449106175410,1,0,0,78,100,8,7,-7,-4,-5,12
1449106175410,1,0,0,-71,-83,-32,55,-16,-6,48,17
1449106175411,2,0,0,-15,8,-10,9,11,19,-5,-16
1449106175411,3,0,0,-4,35,4,-90,-15,19,49,5
1449106175411,2,0,0,-48,-76,-11,-29,-9,-25,-37,-13
1449106175411,3,0,0,68,-9,12,91,32,11,6,23
1449106175412,0,0,0,-17,8,-9,-9,-3,8,30,9
1449106175412,0,0,0,-73,-68,-28,-36,-11,-39,-71,-64
1449106175459,2,0,0,-10,-29,-38,-58,-6,2,-2,-17
1449106175459,2,0,0,54,66,20,3,16,-2,-28,-3
1449106175459,1,0,0,56,63,13,-9,-32,-3,0,-5
1449106175459,1,0,0,-4,-27,-1,-49,15,28,37,35
1449106175460,0,0,0,-24,13,-6,12,5,-4,-11,-12
1449106175460,0,0,0,26,36,23,1,-15,-6,-12,3
1449106175461,1,0,0,-20,-5,26,-49,-12,0,5,-10
1449106175461,1,0,0,-1,-34,-20,-4,2,10,25,28
1449106175507,2,0,0,51,45,-20,-74,-16,10,44,33
1449106175507,2,0,0,42,-10,-11,89,42,-1,-28,-14
1449106175508,3,0,0,71,18,18,78,26,-23,-82,-32
1449106175508,3,0,0,-121,-94,-25,4,16,16,23,-14
1449106175509,1,0,0,-66,-33,-32,-37,-13,-25,-14,-28
1449106175509,1,0,0,87,86,12,-28,-18,11,19,24
1449106175510,2,0,0,-79,-57,-8,82,14,-6,-8,-3
1449106175510,2,0,0,65,68,14,-16,-6,4,11,1
1449106175556,3,0,0,-42,-24,-6,-29,-13,-19,-41,-11
1449106175556,3,0,0,42,43,1,-38,-17,24,48,30
1449106175557,0,0,0,4,-8,-40,22,9,-19,-30,-28
1449106175557,0,0,0,-16,36,24,-32,-7,-8,6,-9
1449106175557,2,0,0,-23,-50,-9,-69,-7,-2,-17,-11
1449106175557,2,0,0,24,42,11,19,2,14,25,9
1449106175559,3,0,0,16,26,17,38,-14,-10,-17,-22
1449106175559,3,0,0,11,-34,-23,-19,2,-9,4,14
1449106175605,0,0,0,-27,-6,-3,10,7,15,21,22
1449106175605,0,0,0,33,10,7,14,-6,0,4,4
1449106175606,1,0,0,-26,-27,2,16,-4,-21,-51,-27
1449106175606,3,0,0,-43,12,16,26,3,-17,-52,-44
1449106175606,3,0,0,37,35,4,57,29,17,25,18
1449106175606,1,0,0,31,-7,-3,-19,-10,12,42,19
1449106175607,0,0,0,12,16,26,100,9,4,25,15
1449106175607,0,0,0,-42,-67,-22,-51,-16,-6,-11,-20
1449106175656,1,0,0,-107,-78,14,63,57,-3,-38,-41
1449106175656,1,0,0,50,34,-12,-72,-25,7,30,18
1449106175657,2,0,0,33,0,2,-46,0,7,9,27
1449106175657,0,0,0,40,26,-6,-39,4,11,34,32
1449106175657,1,0,0,-14,16,-9,-46,-15,-14,-13,-14
1449106175657,1,0,0,41,36,13,-49,-8,17,41,47
1449106175657,0,0,0,-52,-52,0,47,12,-8,-55,-43
1449106175657,2,0,0,-23,2,-17,-59,-17,-1,14,1
1449106175703,2,0,0,-23,-25,-8,35,11,-14,-40,-32
1449106175703,2,0,0,42,33,4,-12,-13,7,40,15
1449106175704,1,0,0,13,24,-2,-56,-20,0,21,-2
1449106175704,3,0,0,-52,-40,-17,6,1,-13,-46,-13
1449106175704,3,0,0,5,-7,-2,21,20,9,-8,-9
1449106175704,1,0,0,13,-22,-8,-7,4,0,9,9
1449106175705,2,0,0,27,37,-8,26,-8,-4,-13,5
1449106175705,2,0,0,-7,4,-8,-11,-3,0,-10,1
1449106175751,3,0,0,21,11,-12,-13,-8,-9,-15,-20
1449106175751,3,0,0,-48,-28,10,31,5,0,18,8
1449106175752,0,0,0,-5,-12,4,5,2,-1,2,7
1449106175752,0,0,0,18,23,-7,-49,-24,-14,-18,-12
1449106175753,1,0,0,-19,-24,-23,-60,-32,-21,-28,-21
1449106175753,1,0,0,1,19,13,97,38,21,37,15
1449106175754,2,0,0,12,3,18,36,24,12,11,24
1449106175754,2,0,0,25,19,-6,-20,-2,-12,-15,-23
1449106175800,0,0,0,-18,9,-5,7,8,-2,-6,-13
1449106175800,3,0,0,9,-12,-3,-2,-13,-2,14,18
1449106175800,3,0,0,-14,1,11,18,-3,3,2,-5
1449106175800,0,0,0,53,15,-13,-65,-32,0,40,46
1449106175801,2,0,0,-34,-26,4,15,1,1,18,14
1449106175801,2,0,0,5,-4,-16,-11,0,-9,-25,-12
1449106175803,3,0,0,13,12,22,70,22,11,-10,19
1449106175803,3,0,0,22,19,-24,-88,-27,-7,22,10
1449106175849,0,0,0,-43,-27,-3,-42,-17,-18,-29,-33
1449106175849,1,0,0,-26,-8,3,-5,-10,-3,7,-10
1449106175849,1,0,0,16,-5,-17,-10,5,0,-22,12
1449106175849,0,0,0,22,25,6,35,14,1,-1,-5
1449106175850,3,0,0,2,10,5,11,2,12,25,9
1449106175850,3,0,0,41,23,-16,-39,-10,-2,0,11
1449106175851,0,0,0,-15,-2,-5,-25,-10,-7,-6,-14
1449106175851,0,0,0,-13,1,13,32,10,2,-16,-8
1449106175897,1,0,0,33,5,-10,20,0,0,12,22
1449106175897,1,0,0,-18,10,16,-44,-5,6,6,-7
1449106175898,2,0,0,-31,-20,0,15,10,-1,-13,-13
1449106175898,2,0,0,24,-3,4,20,5,5,22,6
1449106175899,0,0,0,19,22,-1,20,7,15,48,39
1449106175899,0,0,0,-5,-8,1,13,-3,-19,-61,-26
1449106175900,1,0,0,-2,-4,-5,45,16,4,18,12
1449106175900,1,0,0,-10,-12,-2,-8,-8,-18,-62,-59
1449106175946,2,0,0,13,-2,9,-27,-8,1,5,2
1449106175946,2,0,0,-25,5,-16,-6,19,18,-6,-18
1449106175947,3,0,0,17,-9,-8,9,5,-3,4,24
1449106175947,1,0,0,-16,15,16,12,4,5,-22,-25
1449106175947,1,0,0,22,14,-8,6,2,1,19,17
1449106175947,3,0,0,-31,-26,-7,-13,-14,-11,-9,-8
1449106175949,2,0,0,-29,-26,5,39,9,-4,-6,-2
1449106175949,2,0,0,33,37,-2,-35,-15,-1,-20,-4
1449106176044,3,0,0,-11,-2,-8,-44,-6,-8,-12,-16
1449106176044,3,0,0,-17,-9,18,10,0,-1,13,10
1449106176045,2,0,0,-48,-54,-8,36,1,-8,-1,-13
1449106176045,0,0,0,3,-1,-3,19,-1,9,23,22
1449106176045,0,0,0,-6,-11,1,10,-1,-9,-13,-2
1449106176045,2,0,0,13,1,0,-4,7,8,3,-5
1449106176046,3,0,0,18,17,-7,-34,-17,-6,26,24
1449106176046,3,0,0,-8,-11,7,89,34,12,-26,-15
1449106176092,0,0,0,-13,-14,3,10,-2,-4,-6,-1
1449106176092,0,0,0,-5,-15,-14,-33,-8,-12,-12,-14
1449106176093,1,0,0,-6,8,5,41,5,-2,-9,-13
1449106176093,1,0,0,10,45,-4,-67,-19,9,16,3
1449106176094,3,0,0,87,19,-3,-50,-4,17,47,35
1449106176094,3,0,0,-117,19,20,-3,-14,-13,-14,-23
1449106176095,0,0,0,39,48,13,-23,-7,2,17,27
1449106176095,0,0,0,-43,-38,8,-1,-11,-14,-30,-28
1449106176141,1,0,0,-26,-7,2,-6,-13,-7,3,-4
1449106176141,1,0,0,21,6,7,24,26,12,22,10
1449106176142,2,0,0,22,-6,-23,-39,-20,-8,9,-3
1449106176142,2,0,0,-14,-2,-1,44,8,7,-19,0
1449106176143,0,0,0,-42,-21,-15,-27,-3,-14,-18,-19
1449106176143,0,0,0,54,20,3,-26,-11,3,15,12
1449106176144,1,0,0,-24,-12,7,39,4,-4,-17,-3
1449106176144,1,0,0,6,-3,-12,-6,-5,0,5,4
1449106176195,2,0,0,30,-2,16,46,26,16,3,3
1449106176195,2,0,0,-34,9,-17,-30,-9,-7,14,-2
1449106176196,1,0,0,-3,-9,-2,-12,6,4,14,-1
1449106176196,3,0,0,77,26,28,62,7,5,3,16
1449106176196,3,0,0,-39,-32,-46,-43,-4,-7,-21,-17
1449106176196,1,0,0,11,9,7,-16,-8,-6,-7,3
1449106176197,2,0,0,-7,9,-5,-35,-10,1,14,14
1449106176197,2,0,0,-5,-11,-9,39,4,0,-13,4
1449106176239,3,0,0,-37,-25,-2,31,5,-9,-22,-20
1449106176239,3,0,0,54,-6,-1,3,-3,3,18,7
1449106176240,0,0,0,-42,9,2,-29,-5,5,-14,2
1449106176240,2,0,0,-7,-24,-13,-2,3,4,4,-3
1449106176240,2,0,0,13,19,-32,-41,-17,-5,7,-2
1449106176240,0,0,0,2,-2,26,31,0,4,20,7
1449106176241,3,0,0,-76,-82,-30,-6,8,-4,-2,-13
1449106176241,3,0,0,20,35,9,-24,1,15,12,12
1449106176288,0,0,0,15,8,0,-44,-10,2,-3,-7
1449106176288,1,0,0,8,4,13,16,-1,-8,-3,6
1449106176288,1,0,0,-12,-7,2,22,7,-1,1,-5
1449106176288,0,0,0,21,15,0,-22,-10,-9,4,7
1449106176289,3,0,0,-95,-73,7,27,-5,0,-7,-11
1449106176289,3,0,0,16,37,24,27,-3,-12,0,-3
1449106176290,0,0,0,38,2,-6,-5,7,1,-14,-5
1449106176290,0,0,0,-26,-28,-8,19,9,-2,1,7
1449106176336,1,0,0,-5,33,-12,-44,0,9,11,-10
1449106176336,1,0,0,3,19,8,65,-6,-14,-38,-4
1449106176337,0,0,0,2,1,-3,8,-3,-3,7,-3
1449106176337,0,0,0,12,23,6,11,3,-5,-11,-11
1449106176337,2,0,0,-21,-12,-7,6,0,-3,9,-7
1449106176337,2,0,0,41,12,20,3,1,5,-4,8
1449106176339,1,0,0,0,-20,3,-6,2,-5,-30,-20
1449106176339,1,0,0,22,13,4,-13,-7,1,2,13
1449106176385,2,0,0,28,3,1,-17,-10,-8,-7,12
1449106176385,3,0,0,24,21,10,-15,-8,0,18,-2
1449106176385,3,0,0,-9,2,-3,15,3,2,-15,-3
1449106176385,2,0,0,-14,-12,1,12,8,8,6,0
1449106176386,1,0,0,12,-9,-10,-8,19,14,17,24
1449106176386,1,0,0,25,22,-5,27,14,1,-11,-19
1449106176387,2,0,0,-24,-20,6,14,-14,-6,9,4
1449106176387,2,0,0,9,18,2,-33,-13,-10,-19,-19
1449106176434,3,0,0,28,7,7,-27,-10,-9,-10,8
1449106176434,3,0,0,-8,30,-18,-8,8,5,5,6
1449106176434,0,0,0,-5,-3,4,4,-5,2,-5,-2
1449106176434,0,0,0,9,2,2,0,-5,1,19,0
1449106176435,2,0,0,-17,-13,0,5,5,1,-2,2
1449106176435,2,0,0,-20,-14,-7,-5,-11,-2,9,-7
1449106176436,3,0,0,-21,-15,-8,-19,-7,-9,-12,-10
1449106176436,3,0,0,10,6,-6,-5,0,-6,-4,-5
1449106176482,0,0,0,27,6,-12,-27,3,6,1,1
1449106176482,0,0,0,-36,2,19,42,7,3,-15,-12
1449106176484,1,0,0,12,8,-8,-28,-2,17,57,21
1449106176484,1,0,0,-10,-44,11,62,7,-16,-44,-2
1449106176486,2,0,0,36,22,-12,-7,2,0,1,16
1449106176486,3,0,0,-40,-27,11,64,19,-5,-7,-20
1449106176486,2,0,0,-21,-25,-13,10,-9,-13,-27,-26
1449106176486,3,0,0,24,23,7,-47,-26,3,30,14
1449106176531,0,0,0,8,-5,-15,70,17,6,-4,-2
1449106176531,0,0,0,-53,-33,7,46,17,-1,-14,-10
1449106176532,1,0,0,-8,6,-16,-25,-18,-14,-11,-10
1449106176532,1,0,0,26,3,9,5,8,23,47,22
1449106176533,3,0,0,-14,-14,-11,-35,-17,-3,7,-3
1449106176533,3,0,0,21,-1,14,32,17,9,3,8
1449106176534,0,0,0,12,7,11,-3,10,16,50,24
1449106176534,0,0,0,-8,17,2,-19,-6,0,12,4
1449106176580,1,0,0,-13,-22,10,10,10,-3,-11,-9
1449106176580,1,0,0,3,7,-12,-20,-10,-5,-54,-23
1449106176581,2,0,0,-7,21,5,-17,-15,0,10,5
1449106176581,2,0,0,-9,-23,9,9,7,-1,-8,0
1449106176582,0,0,0,4,5,-4,14,4,-6,-32,-19
1449106176582,0,0,0,13,22,-5,-56,-23,-6,20,10
1449106176629,1,0,0,-4,0,16,100,55,27,23,31
1449106176629,1,0,0,-19,-21,-6,-24,-10,-18,-48,-30
1449106176630,3,0,0,-23,-19,-15,-41,-27,-25,-23,-17
1449106176630,3,0,0,-2,7,-1,4,-5,-3,-3,-3
1449106176630,2,0,0,67,41,1,9,4,11,12,11
1449106176630,2,0,0,-9,-14,6,0,7,7,17,-2
1449106176631,1,0,0,3,3,8,16,-1,-3,-3,5
1449106176631,1,0,0,-39,-17,-15,-15,-3,-10,-15,-15
1449106176677,2,0,0,-11,-18,-3,11,0,-8,-11,-12
1449106176677,2,0,0,6,9,12,-33,-19,-2,8,8
1449106176678,3,0,0,-2,3,-6,-17,4,2,2,-3
1449106176678,3,0,0,-15,-9,-5,-17,1,-2,-19,-22
1449106176679,2,0,0,-40,-33,-17,-29,-12,-9,-5,-10
1449106176679,2,0,0,9,4,0,13,2,-9,-39,-18
1449106176680,3,0,0,54,30,28,53,8,2,6,5
1449106176680,3,0,0,-2,4,-4,-11,12,4,-14,-4
1449106176726,0,0,0,8,-7,3,-29,-20,1,20,16
1449106176726,0,0,0,-2,25,7,17,12,-2,-29,-20
1449106176727,3,0,0,25,35,20,63,8,6,14,12
1449106176727,1,0,0,-35,-23,-9,-15,-3,-2,5,7
1449106176727,3,0,0,27,-20,1,26,5,-12,-14,-9
1449106176727,1,0,0,12,17,7,10,-4,4,16,10
1449106176729,0,0,0,-24,-9,1,30,8,13,30,13
1449106176729,0,0,0,-76,-19,-2,-19,2,-4,-17,-28
1449106176775,1,0,0,61,15,-16,-27,1,-8,-35,-1
1449106176775,1,0,0,-24,-10,1,8,-5,-4,-2,-3
1449106176776,2,0,0,25,16,0,18,-1,0,10,5
1449106176776,0,0,0,10,3,-8,-6,2,-6,-14,0
1449106176776,0,0,0,34,20,8,15,-3,3,15,11
1449106176776,2,0,0,-7,-2,8,-1,-5,14,36,23
1449106176777,1,0,0,-45,-22,-10,-22,-9,0,14,-5
1449106176777,1,0,0,7,6,3,-14,-12,1,2,-2
1449106176824,2,0,1,-19,-29,2,20,7,-9,-7,-8
1449106176824,2,0,1,53,18,-12,3,4,-9,-20,-3
1449106176825,0,0,1,-25,-17,-18,-19,8,11,4,-1
1449106176825,3,0,1,-17,-4,3,24,-10,3,21,18
1449106176825,0,0,1,5,-2,17,62,20,4,9,5
1449106176825,3,0,1,1,-4,-4,-25,1,-10,-37,-19
1449106176828,1,0,1,-24,12,-1,-38,-11,14,48,26
1449106176828,1,0,1,24,-8,-20,-38,-6,0,-14,-6
1449106176873,3,0,1,22,1,-16,10,2,9,17,9
1449106176873,2,0,1,-15,-14,-1,-13,-7,-10,-23,-15
1449106176873,2,0,1,14,-8,-2,38,6,-17,-49,-16
1449106176873,3,0,1,-2,22,2,-27,-7,7,31,9
1449106176874,1,0,1,26,24,2,11,7,1,4,9
1449106176874,1,0,1,-4,14,8,16,8,1,8,-3
1449106176875,2,0,1,-8,-14,10,-10,-12,0,18,8
1449106176875,2,0,1,-20,1,-13,6,4,-5,-16,-15
1449106176921,3,0,1,6,-18,-9,-25,-8,-5,-2,-1
1449106176921,3,0,1,30,23,7,39,-6,-8,-16,2
1449106176922,0,0,1,-33,-2,1,-53,17,22,42,20
1449106176922,0,0,1,3,-45,-13,12,-7,-13,-52,-31
1449106176923,2,0,1,70,88,3,-20,-6,5,2,19
1449106176923,2,0,1,-69,-49,-11,-16,-9,-6,12,-8
1449106176924,3,0,1,-3,-5,-10,-10,0,4,2,-1
1449106176924,3,0,1,14,17,0,6,3,-6,-12,-10
1449106176970,0,0,1,2,43,16,3,11,10,7,6
1449106176970,0,0,1,12,15,3,9,-2,5,7,2
1449106176971,1,0,1,4,-21,-5,1,-7,-8,-12,-1
1449106176971,3,0,1,-4,-1,-6,-26,-13,-2,-19,-7
1449106176971,3,0,1,-78,-52,13,30,7,-2,-7,-23
1449106176971,1,0,1,-14,-6,-5,-10,-3,-4,6,-1
1449106176972,0,0,1,-54,-47,8,56,18,2,10,-24
1449106176972,0,0,1,14,-2,-13,-30,-14,-12,-4,0
1449106177019,2,0,1,21,-9,-10,26,8,3,5,3
1449106177019,1,0,1,86,91,24,22,11,11,-1,9
1449106177019,1,0,1,-78,-78,-8,-29,-13,-21,-31,-10
1449106177019,2,0,1,22,42,-13,-56,-18,10,51,34
1449106177020,0,0,1,-26,-20,3,-2,-6,-1,-6,-3
1449106177020,0,0,1,19,-2,-10,-13,3,1,4,1
1449106177021,1,0,1,9,-1,-1,9,0,0,21,26
1449106177021,1,0,1,-16,0,5,-13,-2,2,9,5
1449106177067,2,0,1,-22,-20,2,19,3,-4,-17,-16
1449106177067,2,0,1,31,26,5,0,0,4,-5,3
1449106177068,3,0,1,-55,-36,-16,-20,-16,-12,-2,-10
1449106177068,3,0,1,88,49,12,8,7,9,12,25
1449106177069,1,0,1,17,1,-21,-62,-12,-4,13,12
1449106177069,1,0,1,4,3,-17,-28,-8,-1,-3,-2
1449106177070,2,0,1,-29,-37,17,49,28,0,-12,-2
1449106177070,2,0,1,25,48,27,48,14,22,27,23
1449106177116,3,0,1,23,1,-23,-53,-22,-8,-7,-13
1449106177116,3,0,1,53,55,10,87,37,29,44,44
1449106177117,0,0,1,-28,-47,-20,-13,-19,-29,-46,-34
1449106177117,0,0,1,9,12,-6,-14,-2,2,5,1
1449106177117,2,0,1,9,-21,4,23,-1,-6,-13,-2
1449106177117,2,0,1,-15,-13,-17,-20,-8,-8,-19,-4
1449106177119,3,0,1,-17,3,6,14,-1,5,1,-6
1449106177119,3,0,1,-3,-19,-11,-23,-13,-5,14,-4
1449106177165,0,0,1,-29,-27,8,31,8,-11,-12,-6
1449106177165,0,0,1,4,-1,-12,-28,-21,-12,-7,-7
1449106177166,2,0,1,-3,4,5,-1,-12,-6,-4,2
1449106177166,1,0,1,-6,9,8,17,16,13,15,12
1449106177166,1,0,1,-19,6,1,-14,4,10,5,-3
1449106177166,2,0,1,39,21,9,11,3,-2,-11,7
1449106177167,3,0,1,-12,-30,-5,29,8,-1,-11,-16
1449106177167,3,0,1,-21,-32,-11,-8,-4,-9,-7,-11
1449106177214,0,0,1,30,30,9,-17,-1,10,18,11
1449106177214,1,0,1,-44,-46,-12,65,24,5,21,1
1449106177214,0,0,1,22,43,-1,-68,-25,-5,3,12
1449106177214,1,0,1,-20,-16,14,26,9,-11,-42,-25
1449106177215,3,0,1,17,-1,-1,35,7,-1,-2,-7
1449106177215,3,0,1,-5,-20,-1,-31,-12,-4,5,18
1449106177216,0,0,1,-24,-27,-13,-15,-5,-5,-3,-12
1449106177216,0,0,1,7,6,-3,16,6,13,19,15
1449106177262,1,0,1,-35,-11,-4,-29,-13,-8,-7,-17
1449106177262,1,0,1,1,6,4,-17,-5,-3,-11,-9
1449106177263,2,0,1,-5,-7,-12,-10,-5,-2,-4,1
1449106177263,2,0,1,18,-1,7,0,5,2,7,13
1449106177264,0,0,1,2,19,11,9,7,9,3,0
1449106177264,0,0,1,-14,-16,-7,-4,-3,-2,-2,-8
1449106177311,1,0,1,20,25,2,1,1,-2,2,8
1449106177311,1,0,1,-50,-6,5,-5,-13,-6,1,-10
1449106177312,3,0,1,87,33,0,5,3,-2,4,10
1449106177312,2,0,1,-15,-16,-4,5,4,-1,-16,-14
1449106177312,2,0,1,65,9,-11,-15,-2,2,1,12
1449106177312,3,0,1,-36,-17,8,8,-9,-11,-9,-8
1449106177314,1,0,1,-28,-23,-13,-33,-8,-2,-8,-5
1449106177314,1,0,1,27,34,0,-24,-4,3,7,12
1449106177360,2,0,1,20,23,10,13,3,0,2,1
1449106177360,2,0,1,11,0,-6,-10,-3,3,11,-1
1449106177361,0,0,1,21,19,1,-11,-1,3,-7,-5
1449106177361,3,0,1,-19,-12,-5,-7,0,2,-5,-8
1449106177361,3,0,1,5,-15,0,8,-2,1,9,9
1449106177361,0,0,1,-20,-9,-5,4,2,-3,5,0
1449106177363,2,0,1,4,1,-3,-8,-2,-3,-2,9
1449106177363,2,0,1,-5,19,0,-3,3,-3,3,-3
1449106177409,3,0,1,21,32,3,-1,2,6,3,-1
1449106177409,0,0,1,20,0,1,13,5,-2,-4,0
1449106177409,3,0,1,3,-19,-4,7,-2,-6,-13,-11
1449106177409,0,0,1,-50,-32,3,-9,3,6,9,11
1449106177410,3,0,1,-3,7,-8,2,6,-7,-17,19
1449106177410,3,0,1,-8,7,21,1,-1,-15,12,48
1449106177411,0,0,1,-13,-10,56,-1,-6,-21,-21,5
1449106177411,0,0,1,-22,-7,28,10,-1,11,-13,-32
1449106177458,1,0,1,4,-11,-89,-26,-4,20,20,-3
1449106177458,2,0,1,-2,2,-50,-18,-11,-35,-39,-14
1449106177458,1,0,1,-18,13,84,27,9,-4,1,-23
1449106177458,2,0,1,-11,-21,-36,-36,-7,13,13,2
1449106177459,0,0,1,31,14,12,23,1,-1,26,12
1449106177459,0,0,1,1,22,19,6,3,6,2,83
1449106177460,1,0,1,-23,3,25,-22,-14,-22,-23,-47
1449106177460,1,0,1,23,-36,-4,-23,-4,29,35,27
1449106177506,2,0,1,-14,-15,-52,-11,5,61,27,-29
1449106177506,2,0,1,22,32,44,25,8,-66,-34,-9
1449106177507,3,0,1,-7,-1,-28,1,2,12,9,3
1449106177507,3,0,1,-21,-3,33,13,3,0,-3,-6
1449106177507,1,0,1,1,-8,9,5,-1,7,-5,-20
1449106177507,1,0,1,13,4,-34,-1,5,2,2,14
1449106177509,2,0,1,-3,20,2,-5,-4,-12,-15,-21
1449106177509,2,0,1,-9,-10,2,-20,-17,-2,2,8
1449106177555,3,0,1,-1,-5,-45,-25,-9,-16,-11,20
1449106177555,0,0,1,-8,-8,-3,17,2,-4,-4,-15
1449106177555,3,0,1,2,8,42,35,14,12,4,-9
1449106177555,0,0,1,1,6,1,-5,2,16,10,-2
1449106177556,1,0,1,6,7,-13,-16,-10,-5,-3,3
1449106177556,1,0,1,-13,-8,17,3,0,-7,-2,2
1449106177557,2,0,1,2,16,52,12,8,16,5,-3
1449106177557,2,0,1,-5,-16,-9,-6,-9,-9,-7,-11
1449106177604,3,0,1,10,-4,-15,8,-2,-1,6,8
1449106177604,0,0,1,4,-8,48,-1,-6,-26,-21,2
1449106177604,0,0,1,13,-13,-49,-9,8,19,8,-9
1449106177604,3,0,1,-12,-4,25,-20,-7,-8,-15,-1
1449106177605,2,0,1,1,6,-11,9,-3,-3,-1,-7
1449106177605,2,0,1,-1,13,27,5,0,6,5,6
1449106177606,3,0,1,1,11,45,25,14,9,4,2
1449106177606,3,0,1,-3,-53,-78,-42,-15,-9,-7,5
1449106177652,0,0,1,-5,-10,3,-3,4,1,0,4
1449106177652,0,0,1,5,19,0,16,5,1,0,-5
1449106177653,1,0,1,-12,-14,-17,-17,-9,-8,-7,-16
1449106177653,1,0,1,7,-15,-17,8,5,4,4,17
1449106177654,3,0,1,16,16,-26,8,1,0,13,15
1449106177654,3,0,1,2,-3,14,-6,-3,-2,-7,12
1449106177655,0,0,1,-1,-35,-39,-16,-9,-5,-1,10
1449106177655,0,0,1,3,12,-9,-1,3,4,-1,-15
1449106177701,1,0,1,2,-13,5,0,-3,-9,-2,-5
1449106177701,1,0,1,-5,24,16,8,1,-4,-2,-3
1449106177702,0,0,1,-2,19,11,0,0,4,3,-3
1449106177702,2,0,1,-15,-6,20,5,-2,-6,-5,-1
1449106177702,2,0,1,-1,-1,-27,-6,-2,4,2,-1
1449106177702,0,0,1,-2,-17,-58,-37,-4,-6,-3,3
1449106177704,1,0,1,3,-9,-11,5,2,0,-6,-2
1449106177704,1,0,1,1,20,29,3,-6,-1,-2,-5
1449106177750,2,0,1,-9,-17,-45,-4,-1,-5,-1,-3
1449106177750,2,0,1,5,8,26,10,0,-1,5,4
1449106177751,1,0,1,-4,-8,-13,-2,-3,1,1,0
1449106177751,3,0,1,4,7,-2,-5,2,0,-1,-2
1449106177751,1,0,1,-3,-4,2,-14,-10,-9,-7,-4
1449106177751,3,0,1,-2,-6,-31,-3,6,0,-6,-7
1449106177752,2,0,1,-17,5,-19,0,3,-1,-5,-6
1449106177752,2,0,1,-2,-5,5,3,-5,-5,-7,-5
1449106177799,3,0,1,-4,-30,14,4,1,1,-2,-6
1449106177799,0,0,1,3,-17,-2,-2,-4,-2,2,10
1449106177799,3,0,1,-1,14,-12,-6,-3,-1,-2,0
1449106177799,0,0,1,9,2,-14,7,4,4,5,3
1449106177800,2,0,1,4,3,20,11,4,2,4,16
1449106177800,2,0,1,-4,-13,-9,-9,1,1,1,-7
1449106177801,3,0,1,2,6,8,-4,-2,-3,0,-2
1449106177801,3,0,1,3,8,-7,8,2,1,2,2
1449106177847,0,0,1,-4,7,-8,-4,-4,-1,-3,-4
1449106177847,0,0,1,2,-3,6,-2,-1,-5,-2,-1
1449106177848,1,0,1,-1,0,0,7,2,0,2,4
1449106177848,1,0,1,-7,-7,-35,-19,-5,-6,-6,-8
1449106177849,3,0,1,-2,-7,7,-3,-5,-4,-1,5
1449106177849,3,0,1,-6,-9,-22,-6,-4,-3,-4,-9
1449106177850,0,0,1,3,1,40,-1,-4,-1,0,2
1449106177850,0,0,1,-1,-12,-21,-5,-2,-3,-1,-4
1449106177896,1,0,1,-3,1,-19,-3,-2,-2,-4,-3
1449106177896,1,0,1,6,-8,-24,0,-3,-2,-1,7
1449106177897,2,0,1,-4,10,20,-6,0,3,2,-5
1449106177897,2,0,1,0,-1,4,13,7,2,-1,-4
1449106177898,3,0,1,-6,-3,8,-7,-4,-3,-1,4
1449106177898,3,0,1,5,7,5,6,3,2,1,0
1449106177899,0,0,1,-3,3,-8,-3,-3,-2,-6,-5
1449106177899,0,0,1,2,3,11,3,-2,-1,-1,3
1449106177945,1,0,1,-1,2,-1,-10,0,2,-2,-15
1449106177945,1,0,1,1,-3,-16,-3,-4,-4,0,13
1449106177946,2,0,1,-1,4,21,7,6,4,2,0
1449106177946,2,0,1,-4,-5,-13,-1,0,-2,-1,-5
1449106177947,0,0,1,3,-4,-5,-6,-4,-4,-1,1
1449106177947,0,0,1,1,-3,-9,-8,-3,-3,-1,0
1449106177947,1,0,1,6,22,-17,3,3,1,0,3
1449106177947,1,0,1,-6,-9,6,0,-2,-1,-1,-3
1449106177994,2,0,1,-6,-16,9,-1,-6,-4,-2,-1
1449106177994,2,0,1,0,0,2,2,4,0,0,4
1449106177995,3,0,1,-5,-15,-30,-12,-5,-3,-3,-5
1449106177995,3,0,1,0,13,24,7,2,-1,-2,-2
1449106177996,1,0,1,2,-1,14,3,-1,-4,-3,1
1449106177996,1,0,1,-7,-9,6,-5,-4,-2,0,-5
1449106178043,2,0,1,0,-3,-12,-11,-6,-4,-4,-1
1449106178043,2,0,1,2,2,-11,6,9,2,2,2
1449106178044,3,0,1,-4,-9,-7,-5,1,6,3,-4
1449106178044,0,0,1,-3,-1,5,-2,-4,-5,-4,-3
1449106178044,0,0,1,-2,-2,2,1,-2,0,2,0
1449106178044,3,0,1,2,9,10,4,-1,-1,-1,1
1449106178045,2,0,1,0,0,-3,-4,-7,-3,0,1
1449106178045,2,0,1,2,-3,-6,-2,-1,-1,-2,0
1449106178091,3,0,1,-1,-4,5,4,1,-1,0,-1
1449106178091,3,0,1,-2,1,0,3,-4,-4,-2,-1
1449106178092,0,0,1,-2,-2,-1,2,-3,1,0,-3
1449106178092,0,0,1,-3,-1,0,-8,-3,-4,-4,-2
1449106178093,1,0,1,-1,-9,-16,-4,-1,0,-5,-3
1449106178093,1,0,1,-2,-6,-5,-3,5,2,1,2
1449106178094,3,0,1,3,11,16,6,0,3,2,0
1449106178094,3,0,1,-5,-12,4,5,4,1,1,0
1449106178140,0,0,1,-8,-22,-4,6,2,2,-2,-4
1449106178140,0,0,1,5,22,-7,-4,0,1,-1,0
1449106178141,0,0,1,3,5,-5,-2,0,0,1,4
1449106178141,1,0,1,2,-5,-3,-5,-3,0,0,-1
1449106178141,0,0,1,-3,-8,-10,0,2,2,-1,0
1449106178141,1,0,1,0,6,3,-2,-4,-5,-2,11
1449106178143,1,0,1,2,-3,-3,-6,-5,-4,-2,3
1449106178143,1,0,1,-6,-5,39,13,1,1,-2,-10
1449106178189,2,0,1,-3,1,-14,-10,-2,1,1,-3
1449106178189,2,0,1,1,8,18,1,-3,-4,1,-1
1449106178190,1,0,1,2,13,6,0,0,0,3,1
1449106178190,1,0,1,1,0,-16,-8,-7,-2,0,0
1449106178190,3,0,1,6,6,11,12,7,5,3,2
1449106178190,3,0,1,1,6,-2,0,1,-2,0,1
1449106178191,2,0,1,2,6,1,-1,-3,-4,-5,2
1449106178191,2,0,1,-4,-10,-12,-3,3,-2,-6,-3
1449106178237,3,0,1,0,-13,-11,-5,-4,-5,-4,-6
1449106178237,3,0,1,-10,-7,1,1,2,0,-1,-7
1449106178239,1,0,1,1,2,1,2,5,4,1,-3
1449106178239,1,0,1,-1,-1,5,2,-10,-7,-3,1
1449106178239,0,0,1,0,1,-2,0,-4,-4,-1,2
1449106178239,0,0,1,0,1,0,-4,-3,0,1,3
1449106178240,2,0,1,1,0,-7,-7,-4,0,1,1
1449106178240,2,0,1,-4,-15,-4,3,2,-2,-1,-3
1449106178286,3,0,1,-4,-3,-1,-1,1,4,3,-1
1449106178286,3,0,1,3,1,2,12,14,7,2,-1
1449106178287,0,0,1,-2,-3,-4,-6,-3,-2,-1,1
1449106178287,0,0,1,9,17,6,0,-1,-5,0,1
1449106178288,2,0,1,10,-10,-5,1,0,2,3,3
1449106178288,2,0,1,0,18,12,6,2,0,-1,1
1449106178289,3,0,1,-16,-2,-11,-4,-7,-7,-6,-9
1449106178289,3,0,1,8,13,3,-6,-4,-1,-2,0
1449106178335,0,0,1,-35,-22,-7,-5,-7,-6,-4,-11
1449106178335,0,0,1,16,12,-1,0,4,-1,1,2
1449106178336,3,0,1,-8,-1,-17,-14,0,0,-1,-2
1449106178336,1,0,1,-5,-15,-5,6,0,-1,0,-1
1449106178336,3,0,1,2,2,-3,-7,-4,-6,-2,-1
1449106178336,1,0,1,8,5,-3,-1,5,5,3,3
1449106178337,0,0,1,-3,-5,-5,-1,1,0,1,-2
1449106178337,0,0,1,4,7,-6,3,3,4,3,3
1449106178384,2,0,1,-8,-15,-13,-6,-1,-3,-3,-4
1449106178384,2,0,1,5,6,0,0,1,-2,-2,-1
1449106178384,1,0,1,-1,-9,0,2,2,-3,0,-1
1449106178384,1,0,1,2,1,0,-2,1,-1,1,0
1449106178385,0,0,1,-8,-5,-1,4,0,1,0,-5
1449106178385,0,0,1,6,8,-1,-4,-1,2,-1,2
1449106178386,1,0,1,-36,-16,0,-8,-8,-4,-9,-14
1449106178386,1,0,1,8,0,3,3,1,0,0,3
1449106178432,2,0,1,9,5,-10,2,6,3,2,0
1449106178432,2,0,1,-3,-10,-2,-2,-4,-5,-3,-3
1449106178433,3,0,1,-4,9,10,-1,0,3,1,-1
1449106178433,3,0,1,7,5,5,1,-5,-3,0,-2
1449106178434,1,0,1,3,-8,-3,0,-2,0,-1,-2
1449106178434,1,0,1,0,1,6,6,5,1,2,3
1449106178435,2,0,1,4,-3,1,3,8,6,4,3
1449106178435,2,0,1,-7,12,2,3,0,0,0,-2
1449106178481,3,0,1,-4,-10,-1,-7,-11,-7,-6,-3
1449106178481,3,0,1,3,-2,-9,-1,3,0,0,3
1449106178482,0,0,1,-13,-7,3,-3,-5,-2,-1,-1
1449106178482,0,0,1,1,10,-8,-7,-5,-4,-4,-1
1449106178483,2,0,1,1,2,1,0,2,1,-1,-1
1449106178483,2,0,1,-1,-10,-1,0,-1,0,0,0
1449106178484,3,0,1,-3,2,-1,-1,-3,-2,-1,0
1449106178484,3,0,1,9,17,2,-2,-1,-1,-1,0
1449106178530,0,0,1,6,13,4,1,-3,0,0,0
1449106178530,0,0,1,-5,2,0,1,2,-2,-1,-2
1449106178531,1,0,1,4,-5,-1,0,-1,1,-2,0
1449106178531,1,0,1,-2,-9,-4,-1,0,1,-2,-1
1449106178532,0,0,1,2,-5,-6,-6,-10,-8,-7,-12
1449106178532,3,0,1,0,-6,-1,3,3,2,1,2
1449106178532,3,0,1,4,17,8,8,12,5,3,0
1449106178532,0,0,1,-6,-4,1,-1,1,-1,-2,-1
1449106178579,1,0,1,1,0,-3,-6,-6,-1,0,10
1449106178579,1,0,1,1,-2,1,1,2,3,0,0
1449106178580,2,0,1,2,3,1,3,1,3,7,17
1449106178580,3,0,1,-1,-2,-5,-3,-3,-1,-2,-5
1449106178580,2,0,1,-7,-10,-4,0,3,2,-2,-23
1449106178580,3,0,1,-6,0,-2,1,-2,-4,-3,-7
1449106178581,0,0,1,-1,-4,-2,0,-2,-3,-3,-5
1449106178581,0,0,1,-2,-10,1,1,3,2,1,8
1449106178628,1,0,1,-3,1,1,-4,-3,-3,-1,-1
1449106178628,1,0,1,8,4,-3,0,0,-1,0,-3
1449106178629,2,0,1,-7,27,11,3,5,1,0,-4
1449106178629,0,0,1,0,-8,-5,1,6,4,0,-5
1449106178629,2,0,1,-6,-15,-5,-2,-1,-2,0,5
1449106178629,0,0,1,3,20,3,2,-1,1,1,3
1449106178630,1,0,1,7,0,0,-3,-5,-2,2,1
1449106178630,1,0,1,-11,1,0,-7,-5,-1,-1,-1
1449106178676,2,0,1,-2,-6,0,1,0,-2,1,-1
1449106178676,2,0,1,6,0,-10,-2,0,-2,-2,3
1449106178677,3,0,1,-2,2,1,-1,-4,-3,-2,-3
1449106178677,3,0,1,-5,-11,-7,-6,0,0,0,-3
1449106178678,1,0,1,-6,-21,0,-2,-2,-3,0,-2
1449106178678,1,0,1,14,22,0,3,4,-2,0,0
1449106178679,2,0,1,1,-5,-1,-3,-5,-2,-1,0
1449106178679,2,0,1,0,3,-3,1,1,1,1,-2
1449106178725,3,0,1,4,5,3,2,1,1,2,0
1449106178725,3,0,1,-7,-12,-3,0,2,-1,-2,0
1449106178726,2,0,1,-2,0,2,2,1,1,0,-5
1449106178726,0,0,1,1,-1,0,-1,2,-1,0,5
1449106178726,2,0,1,-8,-5,1,5,10,9,3,-5
1449106178726,0,0,1,-2,-7,-4,-4,-7,-2,-2,-7
1449106178774,0,0,1,2,-1,-1,-3,-6,-4,-2,-2
1449106178774,3,0,1,-3,-3,-3,-3,-2,-1,-2,0
1449106178774,3,0,1,0,-12,-3,-7,-9,-6,-5,-1
1449106178774,0,0,1,9,18,7,0,2,1,4,10
1449106178775,1,0,1,-12,-27,-8,3,5,1,-1,-4
1449106178775,1,0,1,-1,4,0,0,1,3,1,0
1449106178776,3,0,1,13,13,0,2,0,-1,0,-3
1449106178776,3,0,1,1,-5,-4,0,-1,0,2,1
1449106178823,0,0,1,-16,-16,-6,-1,1,1,-2,-4
1449106178823,0,0,1,2,8,-2,0,-1,-2,-1,4
1449106178824,2,0,1,10,9,0,-5,-4,-2,2,2
1449106178824,1,0,1,-4,7,9,-3,-6,-4,-3,-2
1449106178824,2,0,1,-8,-8,-1,-2,-4,-4,-3,-4
1449106178824,1,0,1,-5,-7,-3,-1,0,0,-3,-2
1449106178825,0,0,1,2,3,0,-1,-1,-2,-2,-1
1449106178825,0,0,1,-8,-9,-6,-5,-5,-2,-2,-3
1449106178871,1,0,1,-1,6,3,4,2,0,0,-2
1449106178871,1,0,1,-1,-14,-2,1,0,-3,0,-3
1449106178872,2,0,1,-3,-9,-8,0,-1,-1,-1,1
1449106178872,2,0,1,-1,-4,-6,-6,-3,-1,-2,-3
1449106178873,1,0,1,10,4,-4,-4,-5,0,-4,-4
1449106178873,1,0,1,-3,-6,-2,1,3,3,1,6
1449106178874,2,0,1,2,4,1,-2,-4,-4,-2,1
1449106178874,2,0,1,-2,-1,-1,0,-2,-1,0,0
1449106178920,3,0,1,-4,-7,-2,0,0,-1,-2,-3
1449106178920,3,0,1,2,8,1,-1,-1,0,-1,-4
1449106178921,0,0,1,-1,-12,-3,-3,-4,-4,-1,3
1449106178921,0,0,1,-5,-6,0,2,4,4,0,-9
1449106178921,2,0,1,5,5,5,2,0,-1,1,4
1449106178921,2,0,1,0,0,-2,-2,-4,-5,-2,-3
1449106178923,3,0,1,-3,-1,-4,-3,-5,-1,-2,1
1449106178923,3,0,1,-6,-6,-2,3,4,2,0,-1
1449106178969,0,0,1,4,13,3,-2,-3,0,-2,-2
1449106178969,0,0,1,-1,-2,-5,0,1,-2,1,-2
1449106178969,1,0,1,-2,-12,-3,-4,-2,-3,-2,3
1449106178969,1,0,1,-5,5,2,0,-1,-1,-1,-3
1449106178970,2,0,1,0,5,3,0,-1,-3,-2,-1
1449106178970,2,0,1,0,-1,0,-4,-5,-1,-2,-2
1449106178971,3,0,1,2,-2,1,0,-1,0,0,-2
1449106178971,3,0,1,-2,-3,-1,0,-2,-3,1,0
1449106179017,0,0,1,-16,4,1,2,5,1,0,-6
1449106179017,0,0,1,0,1,0,0,2,1,2,2
1449106179018,1,0,1,0,-9,-3,-1,0,0,-2,-1
1449106179018,1,0,1,-4,3,-1,-3,-5,-4,-3,-6
1449106179019,3,0,1,-5,-6,-3,-3,-2,-3,-1,-2
1449106179019,3,0,1,6,11,1,-1,-3,-1,1,4
1449106179020,0,0,1,-10,-21,-5,-1,4,4,2,-6
1449106179020,0,0,1,-3,-1,-1,-1,0,-2,-2,-1
1449106179066,1,0,1,-1,0,-9,-3,0,-1,-2,5
1449106179066,1,0,1,0,1,2,-2,-6,-4,0,-3
1449106179067,2,0,1,2,3,1,-1,-5,-2,-2,-3
1449106179067,2,0,1,-3,-13,-6,-5,-5,-3,-2,0
1449106179068,0,0,1,3,-5,1,3,3,2,-2,0
1449106179068,0,0,1,0,-13,-2,0,0,0,-1,3
1449106179069,1,0,1,-14,2,-2,-1,-3,-1,-1,-5
1449106179069,1,0,1,-3,-4,-4,-4,-4,0,-2,-4
1449106179115,2,0,1,4,2,-2,0,1,1,1,0
1449106179115,2,0,1,-1,8,5,5,1,-1,-2,-2
1449106179116,3,0,1,4,1,-6,-7,-5,-4,-3,0
1449106179116,3,0,1,-9,-12,0,-3,-3,-2,-2,-9
1449106179117,2,0,1,1,-1,-5,-2,-4,-4,-2,-5
1449106179117,1,0,1,4,0,3,1,1,0,-1,-6
1449106179117,1,0,1,3,1,-3,-1,0,-1,1,8
1449106179117,2,0,1,0,1,-2,-2,-1,-2,-2,1
1449106179164,3,0,1,6,2,3,0,-3,-3,-1,0
1449106179164,3,0,1,-6,-8,2,-1,-1,-1,-2,-1
1449106179165,2,0,1,-14,2,1,-3,-2,-1,-2,-3
1449106179165,0,0,1,5,7,1,5,6,2,1,-1
1449106179165,0,0,1,-1,9,0,-1,0,0,0,1
1449106179165,2,0,1,-2,-8,-4,-6,-8,-6,-4,-5
1449106179166,3,0,1,2,3,-2,0,2,3,-2,4
1449106179166,3,0,1,1,1,9,10,8,5,2,-1
1449106179213,1,0,1,-3,3,-1,1,0,3,2,-4
1449106179213,0,0,1,-2,-2,1,1,1,-1,-1,-1
1449106179213,0,0,1,1,-4,-13,-8,-4,-2,-3,-4
1449106179213,1,0,1,0,-5,-1,-5,-7,-10,-4,1
1449106179214,3,0,1,1,8,0,-5,-6,-5,-2,-2
1449106179214,3,0,1,3,3,-2,-3,0,0,1,4
1449106179215,0,0,1,1,-4,-2,1,3,2,2,4
1449106179215,0,0,1,1,-9,-1,3,2,-1,0,-2
1449106179261,1,0,1,2,-2,-6,-4,-3,-5,-1,7
1449106179261,1,0,1,-7,-10,3,-1,-1,1,-3,-8
1449106179262,0,0,1,0,3,1,0,4,5,1,1
1449106179262,2,0,1,-4,-8,-2,-3,-5,-2,-3,-6
1449106179262,0,0,1,-2,1,-1,-3,-3,-3,-1,-1
1449106179262,2,0,1,3,-3,0,-2,0,-2,-1,-1
1449106179264,1,0,1,8,-2,-3,0,0,0,0,-1
1449106179264,1,0,1,4,14,4,4,6,2,2,0
1449106179310,2,0,1,-8,-10,-2,-3,-6,-7,-4,-1
1449106179310,2,0,1,-17,-2,1,1,1,2,-1,-13
1449106179311,0,0,1,-4,-9,-2,0,-3,-2,-2,-4
1449106179311,3,0,1,4,8,3,0,-2,-2,0,10
1449106179311,3,0,1,5,12,1,1,-1,1,0,3
1449106179311,0,0,1,6,5,0,-1,-4,-2,1,4
1449106179312,1,0,1,-1,3,-1,0,2,1,0,-2
1449106179312,1,0,1,5,1,-2,0,-1,-2,-1,-4
1449106179359,2,0,1,-1,2,1,-6,-1,1,-1,1
1449106179359,3,0,1,-1,5,-1,-3,-5,-4,-2,-2
1449106179359,3,0,1,-2,-4,-1,3,2,0,2,0
1449106179359,2,0,1,2,3,2,1,1,-1,-2,0
1449106179360,1,0,1,-2,2,1,-1,-2,-2,0,0
1449106179360,1,0,1,-8,-16,-5,0,4,2,0,-7
1449106179361,2,0,1,2,4,-2,-5,-5,-4,-1,-1
1449106179361,2,0,1,1,3,5,0,0,-1,0,2
1449106179407,3,0,1,-8,-10,-4,1,-1,0,-2,-7
1449106179407,3,0,1,-2,-3,-7,-3,-2,-2,-1,3
1449106179408,0,0,1,3,1,0,4,4,0,-1,1
1449106179408,0,0,1,7,20,7,0,-1,0,0,1
1449106179409,2,0,1,0,-7,-2,4,2,0,-2,-3
1449106179409,2,0,1,-1,-3,-2,-1,-1,1,2,3
1449106179410,3,0,1,0,2,3,-3,-3,-2,-2,-2
1449106179410,3,0,1,5,4,-3,0,2,0,1,-1
1449106179456,0,0,1,1,-3,-5,-5,-6,-2,-3,-4
1449106179456,0,0,1,-3,-7,0,-5,-6,-6,-4,0
1449106179457,3,0,1,-11,-6,-1,1,2,2,0,-3
1449106179457,3,0,1,-1,-9,1,2,-3,0,-1,1
1449106179457,1,0,1,-3,6,9,2,0,3,3,-1
1449106179457,1,0,1,-1,1,-7,-1,3,1,-1,-3
1449106179459,0,0,1,4,-3,-6,-2,-2,-2,-2,2
1449106179459,0,0,1,-1,-3,-5,-4,-4,-2,-2,-2
1449106179505,2,0,1,0,0,-3,0,2,1,-1,-2
1449106179505,1,0,1,3,3,4,3,5,2,0,-1
1449106179505,1,0,1,-5,1,3,-2,-2,-4,-2,-5
1449106179505,2,0,1,-7,-4,-1,-3,-1,-2,-2,-4
1449106179506,0,0,1,3,-1,-1,-1,2,-1,0,4
1449106179506,0,0,1,-5,-3,-3,1,0,-2,-2,-9
1449106179507,1,0,1,-1,0,-1,-4,-1,0,-1,-12
1449106179507,1,0,1,9,2,0,-2,-2,-1,-1,7
1449106179554,2,0,1,-10,0,0,0,1,0,0,1
1449106179554,3,0,1,6,2,-3,-4,1,0,-2,-1
1449106179554,3,0,1,-8,-10,-5,-3,-3,-2,-2,-4
1449106179554,2,0,1,-2,2,1,0,-2,1,3,-1
1449106179555,1,0,1,0,2,-2,1,-1,-3,-1,1
1449106179555,1,0,1,-1,-2,-4,0,-1,2,0,-1
1449106179556,2,0,1,3,3,0,-3,-3,1,3,3
1449106179556,2,0,1,-5,-17,-3,-1,0,0,-1,-5
1449106179603,3,0,1,-7,-1,-2,-1,1,2,0,-1
1449106179603,3,0,1,1,3,-1,-2,-5,-5,-2,1
1449106179604,0,0,1,1,1,-3,-1,2,1,0,0
1449106179604,2,0,1,-11,-8,-5,-1,0,0,1,0
1449106179604,2,0,1,5,-2,2,5,5,4,4,4
1449106179604,0,0,1,3,3,2,3,6,1,-1,0
1449106179605,3,0,1,2,8,1,-6,-6,-4,-2,1
1449106179605,3,0,1,1,-3,-2,4,6,1,1,0
1449106179652,0,0,1,3,0,-2,-2,-5,-4,-2,-2
1449106179652,1,0,1,5,0,2,-1,-4,-4,-3,-1
1449106179652,0,0,1,0,-7,-3,0,-2,-2,-2,-1
1449106179652,1,0,1,-13,-5,0,1,-2,-1,-2,-1
1449106179653,2,0,1,0,0,-1,-2,-3,-1,-1,0
1449106179653,2,0,1,-3,3,-2,0,3,0,1,0
1449106179654,3,0,1,7,10,4,3,1,2,1,4
1449106179654,3,0,1,-9,-10,-4,-4,-3,-3,-1,-4
1449106179700,0,0,1,-4,-4,0,-1,-1,-3,-4,-10
1449106179700,0,0,1,2,-1,3,1,-1,-1,0,-2
1449106179701,1,0,1,5,3,-1,-2,-1,-3,1,-2
1449106179701,3,0,1,-13,-5,-3,-3,-2,-2,-2,2
1449106179701,3,0,1,0,-9,-5,-3,-2,-2,-4,-9
1449106179701,1,0,1,-2,-8,-2,0,2,2,1,9
1449106179703,0,0,1,0,1,1,0,-3,-2,-2,5
1449106179703,0,0,1,-6,-6,-1,-3,-2,-3,-3,-6
1449106179749,1,0,1,3,2,-2,1,0,-4,-1,5
1449106179749,1,0,1,-1,-1,-1,-1,-1,2,0,-1
1449106179750,2,0,1,-3,-4,-5,-1,0,-2,-2,1
1449106179750,0,0,1,-1,-9,0,4,3,-1,1,0
1449106179750,0,0,1,-5,-23,-5,-5,-6,-5,-3,0
1449106179750,2,0,1,-1,1,0,-3,-1,0,0,-7
1449106179751,1,0,1,0,8,6,3,6,3,2,-2
1449106179751,1,0,1,4,9,-3,-3,-7,-2,-1,-3
1449106179797,2,0,1,-2,-6,-4,0,3,-1,-1,3
1449106179797,2,0,1,-6,-3,-1,-1,-1,1,-3,-4
1449106179798,3,0,1,1,-4,1,2,-1,-2,-2,-4
1449106179798,3,0,1,-4,-4,0,0,1,-1,-2,-1
1449106179799,1,0,1,-1,-5,0,0,-1,-1,-2,-7
1449106179799,1,0,1,5,9,1,-2,-1,-2,-1,-1
1449106179800,2,0,1,0,1,0,-1,1,-1,-1,0
1449106179800,2,0,1,8,3,-1,0,-3,-3,2,12
1449106179846,3,0,1,0,8,2,-3,-4,-2,-3,-11
1449106179846,3,0,1,-5,-9,-4,1,3,2,3,10
1449106179847,2,0,1,-2,1,-2,-1,-1,0,-1,-1
1449106179847,0,0,1,-2,2,-1,1,-3,-2,-1,-6
1449106179847,0,0,1,0,-4,-3,-1,0,-1,-2,2
1449106179847,2,0,1,-3,-8,0,-4,-4,-3,-2,1
1449106179849,3,0,1,3,14,7,1,-2,0,1,4
1449106179849,3,0,1,-9,-21,-4,-1,1,-1,-1,-9
1449106179895,1,0,1,-1,0,-2,1,3,1,0,1
1449106179895,0,0,1,6,5,2,0,0,-1,-2,2
1449106179895,0,0,1,2,3,-1,0,-2,-3,-2,0
1449106179895,1,0,1,2,-6,-2,-1,2,2,-1,-1
1449106179896,3,0,1,1,-1,-1,2,2,-2,-2,0
1449106179896,3,0,1,-2,3,-2,-4,-2,-1,-2,-7
1449106179897,0,0,1,6,2,-1,-5,-7,-5,1,10
1449106179897,0,0,1,-12,-10,1,3,3,2,1,-7
1449106179944,1,0,1,3,5,-3,1,-1,1,1,4
1449106179944,1,0,1,-2,-5,-1,-4,-6,-6,-2,-2
1449106179945,2,0,1,-3,-5,1,4,9,5,0,-5
1449106179945,0,0,1,-2,-11,-2,-4,-4,-2,-3,-5
1449106179945,0,0,1,7,18,-3,-1,2,-1,1,1
1449106179945,2,0,1,2,-1,-2,1,0,-1,-1,1
1449106179946,1,0,1,-7,-5,1,-1,-6,-2,-2,-1
1449106179946,1,0,1,0,4,1,1,3,0,0,-2
1449106179993,2,0,1,0,1,-1,0,-3,-1,0,-2
1449106179993,3,0,1,6,3,-2,0,2,0,2,11
1449106179993,2,0,1,0,-13,-8,0,1,0,-3,-3
1449106179993,3,0,1,-2,2,2,-3,-5,-3,-1,-2
1449106179994,0,0,1,2,3,-8,-4,-3,-2,3,4
1449106179994,0,0,1,-5,-7,2,1,1,1,0,-12
1449106179995,1,0,1,5,-10,6,6,4,-1,1,2
1449106179995,1,0,1,-4,-8,5,-4,-7,-4,-4,-1
1449106180042,2,0,1,6,-1,3,1,4,4,3,9
1449106180042,2,0,1,4,-1,-7,-4,-3,-4,-4,-4
1449106180043,1,0,1,-3,1,2,0,-1,0,0,-5
1449106180043,1,0,1,6,4,1,5,5,1,0,6
1449106180043,3,0,1,-18,-13,-4,-7,-6,-5,-3,-15
1449106180043,3,0,1,0,-15,-11,-5,-4,-3,-2,3
1449106180044,2,0,1,4,5,-2,1,1,-1,0,7
1449106180044,2,0,1,-3,-7,0,-5,-4,-2,-3,-7
1449106180090,3,0,1,1,13,10,-3,-8,-5,-3,0
1449106180090,3,0,1,-3,2,-20,-5,-1,2,0,4
1449106180091,0,0,1,0,5,19,5,-3,-3,-1,0
1449106180091,2,0,1,-12,-7,-3,1,-2,-2,-5,-7
1449106180091,0,0,1,5,-4,-6,3,7,2,3,7
1449106180091,2,0,1,-15,-2,20,7,-4,-2,-3,2
1449106180093,3,0,1,-4,-1,16,15,1,1,4,-3
1449106180093,3,0,1,4,7,-3,-9,-1,-1,-3,-12
1449106180139,0,0,1,-2,0,-1,8,5,0,0,-4
1449106180139,1,0,1,-2,10,22,7,1,1,-2,-7
1449106180139,1,0,1,4,-12,-4,6,1,-2,3,12
1449106180139,0,0,1,-5,0,-14,-17,-7,-7,-12,-9
1449106180140,3,0,1,1,0,13,-2,0,2,0,2
1449106180140,3,0,1,1,8,0,8,2,0,-1,-3
1449106180141,0,0,1,3,0,-12,-9,-4,-2,-1,5
1449106180141,0,0,1,-5,-8,6,5,0,1,1,-4
1449106180188,2,0,1,-6,-8,-23,-6,-5,-3,-1,-3
1449106180188,1,0,1,-3,4,9,3,-1,-1,0,-4
1449106180188,2,0,1,6,5,10,-3,-2,-1,3,6
1449106180188,1,0,1,0,-4,-2,-6,-4,-1,-2,5
1449106180189,0,0,1,2,11,11,-3,-5,-4,-3,-6
1449106180189,0,0,1,1,-10,-12,-1,7,5,3,-2
1449106180236,1,0,1,0,-2,-3,-4,0,-3,-2,3
1449106180236,1,0,1,-5,-7,2,3,-1,1,0,-3
1449106180237,2,0,1,2,-3,-16,-1,0,1,2,1
1449106180237,2,0,1,1,3,1,7,0,-3,-1,3
1449106180238,3,0,1,3,-8,-3,-5,3,3,-1,-7
1449106180238,3,0,1,-12,-3,11,-4,-5,-2,0,4
1449106180239,1,0,1,3,3,17,4,-2,-3,-1,13
1449106180239,1,0,1,9,19,13,8,0,-2,-3,-3
1449106180285,2,0,1,0,-4,-11,-5,1,1,2,3
1449106180285,2,0,1,-13,-29,-33,-18,-7,-3,-5,-5
1449106180286,3,0,1,-5,-6,4,0,-4,-3,-2,1
1449106180286,3,0,1,-3,4,12,13,5,2,-1,-10
1449106180287,2,0,1,-6,-12,-8,-5,0,-1,-4,-24
1449106180287,3,0,1,-6,-23,-12,-7,-2,-1,1,0
1449106180287,2,0,1,5,4,10,2,-4,-4,-1,9
1449106180287,3,0,1,1,20,20,8,2,0,2,-2
1449106180334,0,0,1,5,13,9,6,4,2,3,-1
1449106180334,0,0,1,7,-7,6,-5,-2,1,1,14
1449106180335,1,0,1,-8,-4,-13,-2,-2,-4,-7,-11
1449106180335,1,0,1,1,-2,-24,1,2,-1,4,18
1449106180336,0,0,1,-3,-8,-30,-2,4,2,0,-6
1449106180336,0,0,1,-6,16,65,16,5,3,-1,-4
1449106180336,3,0,1,6,4,-25,-3,-5,-4,-4,-1
1449106180336,3,0,1,10,0,-15,-12,-3,1,1,3
1449106180383,2,0,1,-15,6,-30,-10,0,0,-3,-14
1449106180383,1,0,1,16,-1,-26,-7,-5,-3,-3,-1
1449106180383,1,0,1,-5,1,12,4,-2,-3,4,17
1449106180383,2,0,1,9,-4,-17,2,5,4,6,16
1449106180384,3,0,1,-37,-49,-18,-23,-6,-11,-46,-38
1449106180384,3,0,1,49,17,52,26,5,1,-8,1
1449106180385,0,0,1,3,1,-26,-7,-4,4,14,16
1449106180385,0,0,1,12,6,16,-6,-7,-5,31,18
1449106180431,1,0,1,-4,-12,-4,-9,-1,2,4,-1
1449106180431,1,0,1,3,12,-7,-3,-4,1,9,3
1449106180432,0,0,1,-3,-17,12,-21,-21,-8,-7,18
1449106180432,2,0,1,0,60,45,21,31,16,17,16
1449106180432,2,0,1,9,23,42,-30,-18,-3,-14,-11
1449106180432,0,0,1,38,18,16,8,0,-4,-23,-13
1449106180434,1,0,1,-44,2,20,-12,-8,-2,23,12
1449106180434,1,0,1,-1,-29,-94,-41,-4,-6,-37,-12
1449106180480,2,0,1,39,40,13,32,3,10,57,58
1449106180480,2,0,1,-73,-98,-21,-25,-20,-25,-94,-102
1449106180481,3,0,1,1,3,52,1,1,15,42,8
1449106180481,3,0,1,-38,29,0,37,2,14,38,21
1449106180481,1,0,1,-19,-66,-14,40,83,18,4,14
1449106180481,1,0,1,-45,-35,7,-106,-41,-35,-31,-31
1449106180482,2,0,1,6,21,-8,78,-7,-4,-1,4
1449106180482,2,0,1,-9,-12,-35,27,19,20,35,-5
1449106180529,3,0,1,127,46,22,76,48,47,81,84
1449106180529,3,0,1,-55,34,2,-21,-15,3,8,-1
1449106180529,0,0,1,41,-8,-11,-28,-35,-24,-25,1
1449106180529,0,0,1,-128,-126,-28,-90,-2,-42,-90,-98
1449106180530,2,0,1,28,63,-12,101,9,9,18,36
1449106180530,2,0,1,-97,-104,-29,16,14,-8,-23,-83
1449106180531,3,0,1,-56,-6,-6,-64,-51,-12,-10,-2
1449106180531,3,0,1,10,35,16,-84,-2,20,65,10
1449106180577,0,0,1,-90,-91,7,-13,18,-2,-19,7
1449106180577,0,0,1,33,23,-15,111,16,-22,-58,-16
1449106180578,1,0,1,-12,54,26,-11,-22,14,34,12
1449106180578,1,0,1,80,9,-16,-16,-2,-1,-4,-6
1449106180579,3,0,1,-6,-21,-38,-62,-17,-28,-31,-79
1449106180579,3,0,1,127,109,33,50,6,24,6,78
1449106180580,0,0,1,-8,-43,-42,24,31,-11,-60,-49
1449106180580,0,0,1,13,46,39,-43,-6,-3,-10,-9
1449106180626,1,0,1,-31,-51,-20,-71,-27,-9,16,19
1449106180626,1,0,1,72,24,29,98,21,-11,-8,7
1449106180627,2,0,1,86,-15,-29,27,-15,-3,32,61
1449106180627,2,0,1,-58,-1,-3,-19,-16,15,42,8
1449106180628,0,0,1,-98,-108,-37,-72,-10,-17,-21,-41
1449106180628,0,0,1,43,20,6,-11,-5,15,59,70
1449106180629,1,0,1,-37,-35,-20,94,32,-8,-51,-46
1449106180629,1,0,1,64,123,27,-37,8,23,34,53
1449106180675,3,0,1,17,28,-32,114,54,11,25,15
1449106180675,2,0,1,-47,-56,-28,-90,-12,-27,-42,-70
1449106180675,2,0,1,80,100,43,28,-7,24,57,56
1449106180675,3,0,1,-5,30,-10,-69,-39,-14,-11,-3
1449106180676,1,0,1,-50,-60,-15,-27,-2,-10,-30,-28
1449106180676,1,0,1,10,-18,8,-44,5,8,50,33
1449106180677,2,0,1,-44,-36,-14,-36,-20,-11,-20,-39
1449106180677,2,0,1,45,53,33,-41,5,17,13,36
1449106180724,3,0,1,-16,92,25,-69,-40,-7,11,16
1449106180724,0,0,1,43,19,15,30,12,16,54,24
1449106180724,3,0,1,10,-72,-14,109,32,-9,-34,-23
1449106180724,0,0,1,4,-6,-6,-18,-1,4,13,10
1449106180725,1,0,1,-40,7,-3,-59,-37,-14,-35,-34
1449106180725,1,0,1,-37,-25,5,-18,-2,12,28,16
1449106180726,2,0,1,-8,95,37,62,5,11,36,15
1449106180726,2,0,1,-39,-87,-27,7,16,-14,-52,-36
1449106180772,3,0,1,-89,-127,15,83,64,3,-47,-39
1449106180772,3,0,1,95,127,-26,-65,-38,3,30,44
1449106180773,0,0,1,-13,-10,-10,-44,-15,0,1,11
1449106180773,0,0,1,33,59,14,-76,-13,-2,12,3
1449106180774,2,0,1,127,86,13,-13,-2,13,14,37
1449106180774,2,0,1,-12,-84,-14,-14,2,-9,-19,12
1449106180775,3,0,1,65,35,20,79,22,8,37,10
1449106180775,3,0,1,-56,-43,-14,-83,-42,-16,-4,-10
1449106180821,0,0,1,110,0,-41,49,-3,-22,-65,-18
1449106180821,0,0,1,-128,26,26,53,23,26,35,-1
1449106180822,1,0,1,-50,60,32,85,33,8,-7,3
1449106180822,3,0,1,58,81,11,-9,-4,7,30,42
1449106180822,1,0,1,-8,-70,-1,52,-13,-14,-13,-27
1449106180822,3,0,1,-31,-66,-14,-17,-2,-11,-34,-31
1449106180824,0,0,1,-100,-68,-7,0,-1,-19,-59,-45
1449106180824,0,0,1,-5,-38,-19,-35,6,20,48,32
1449106180870,1,0,1,107,111,18,-21,-1,26,53,68
1449106180870,1,0,1,22,15,-1,-20,-7,-12,-35,-33
1449106180871,0,0,1,26,44,1,-7,-15,2,13,10
1449106180871,2,0,1,22,17,-6,-23,-2,6,18,21
1449106180871,0,0,1,69,68,31,37,-2,11,30,39
1449106180871,2,0,1,-64,-33,-7,-25,-31,-30,-21,-31
1449106180873,1,0,1,-91,-94,-31,-47,-12,-45,-82,-81
1449106180873,1,0,1,61,79,-15,-10,-1,8,15,22
1449106180919,3,0,1,-23,-10,-2,-8,1,4,17,26
1449106180919,3,0,1,114,-4,-11,-17,-9,4,19,39
1449106180919,2,0,1,3,-29,-2,5,14,5,7,-1
1449106180919,2,0,1,-49,1,-1,-3,-10,-7,-9,-9
1449106180920,1,0,1,-4,-18,29,85,18,12,21,30
1449106180920,1,0,1,-88,-59,-17,-4,2,-10,-26,-40
1449106180921,2,0,1,-9,-29,4,-62,-21,-15,-8,-15
1449106180921,2,0,1,70,69,7,1,-7,2,16,30
1449106180967,3,0,1,50,97,17,71,33,16,2,-10
1449106180967,3,0,1,-12,-52,-17,-2,-5,-3,-8,6
1449106180968,0,0,1,54,48,15,54,23,23,57,18
1449106180968,0,0,1,-12,25,-1,25,14,3,-11,1
1449106180969,2,0,1,-16,9,0,21,12,11,33,16
1449106180969,2,0,1,59,40,2,-17,0,-5,-31,-5
1449106180970,3,0,1,76,39,10,-6,-7,-1,11,20
1449106180970,3,0,1,-66,-57,5,-10,-6,-6,-1,-11
1449106181016,0,0,1,-78,-19,-16,18,-10,-1,-10,-11
1449106181016,0,0,1,-52,-59,-6,-47,-15,-15,-39,-27
1449106181017,1,0,1,48,60,-10,-82,-1,11,13,28
1449106181017,1,0,1,-48,-26,9,36,-1,0,4,-25
1449106181017,3,0,1,26,58,20,-17,-1,2,-11,13
1449106181017,3,0,1,-71,-79,-23,-40,-6,-6,-12,-38
1449106181019,0,0,1,25,15,4,-14,3,10,37,12
1449106181019,0,0,1,-20,-42,-19,-10,-11,-6,0,-1
1449106181065,1,0,1,-11,62,7,35,-4,-4,-6,8
1449106181065,2,0,1,-27,-50,9,15,14,-6,-31,-27
1449106181065,2,0,1,-86,-37,-18,2,1,-5,-22,-34
1449106181065,1,0,1,7,-8,-4,-36,-14,-4,5,-1
1449106181066,3,0,1,77,79,25,1,-11,9,38,42
1449106181066,3,0,1,-1,3,1,11,2,-4,-6,4
1449106181067,0,0,1,-92,-79,-12,-26,-20,-25,-64,-53
1449106181067,0,0,1,31,60,7,-24,9,3,23,9
1449106181114,1,0,1,31,68,19,15,12,15,45,27
1449106181114,2,0,1,10,-42,-6,9,1,-25,-51,-37
1449106181114,2,0,1,95,101,22,11,6,19,54,35
1449106181114,1,0,1,-33,-80,-20,0,-6,-3,-15,10
1449106181115,0,0,1,-9,46,17,45,4,20,43,26
1449106181115,0,0,1,-10,-36,-16,-20,-2,-14,-49,-36
1449106181116,1,0,1,97,65,7,15,6,5,16,25
1449106181116,1,0,1,39,67,33,54,10,12,26,-1
1449106181162,2,0,1,-34,-49,-20,-36,-20,-10,-9,-17
1449106181162,2,0,1,11,42,7,31,18,13,22,19
1449106181163,3,0,1,94,61,-1,-20,14,16,18,27
1449106181163,3,0,1,-92,-62,4,-27,-13,-20,-56,-41
1449106181164,1,0,1,83,44,-3,-24,-11,-2,7,24
1449106181164,1,0,1,-27,-15,-3,30,10,9,24,10
1449106181165,2,0,1,33,-1,-4,-64,-13,0,8,13
1449106181165,2,0,1,-64,-10,1,28,8,3,24,16
1449106181211,3,0,1,-31,14,-10,-22,-9,-18,-33,-30
1449106181211,3,0,1,107,127,10,26,5,4,-2,11
1449106181212,2,0,1,23,64,4,40,10,-4,-9,1
1449106181212,0,0,1,-48,-67,2,-7,0,2,8,-13
1449106181212,2,0,1,65,19,1,-31,-17,0,17,13
1449106181212,0,0,1,-17,20,-8,-119,-28,10,67,35
1449106181214,3,0,1,-121,-83,-6,-19,-13,-3,-10,-32
1449106181214,3,0,1,19,-18,-9,17,8,0,23,7
1449106181260,1,0,1,20,51,6,0,1,-1,-8,-7
1449106181260,0,0,1,91,81,8,-16,5,10,10,18
1449106181260,0,0,1,4,19,-2,-8,-3,-5,-44,-31
1449106181260,1,0,1,-37,-47,-17,1,-14,-18,-26,-14
1449106181261,3,0,1,-70,-27,11,10,-9,-3,12,5
1449106181261,3,0,1,84,82,8,-19,-2,12,35,28
1449106181262,0,0,1,32,8,-22,-13,3,-6,-5,1
1449106181262,0,0,1,-10,-24,4,38,3,-2,11,6
1449106181309,1,0,1,-20,26,3,-18,3,4,-22,-23
1449106181309,2,0,1,-42,-33,-1,-5,-3,-2,-7,-9
1449106181309,1,0,1,35,10,-3,0,-5,1,1,4
1449106181309,2,0,1,13,-2,-23,-41,-18,-17,-30,-9
1449106181310,0,0,1,0,-4,-2,16,16,13,39,17
1449106181310,0,0,1,-6,27,1,-36,-11,-1,-7,-6
1449106181311,1,0,1,-8,-36,-9,-9,-7,1,16,8
1449106181311,1,0,1,16,28,-8,22,2,4,12,9
1449106181358,2,0,1,-62,-62,-42,34,8,1,2,-19
1449106181358,2,0,1,45,38,61,15,2,-12,-18,4
1449106181359,3,0,1,98,99,20,-11,-2,17,35,46
1449106181359,3,0,1,-76,-92,-11,-1,-7,-19,-34,-20
1449106181362,1,0,1,44,12,2,12,-4,0,9,5
1449106181362,1,0,1,-35,-36,6,2,-4,-2,-22,-28
1449106181363,2,0,1,13,14,-20,11,8,1,-5,8
1449106181363,2,0,1,-6,-23,-1,-28,-11,-1,8,10
1449106181406,3,0,1,-19,-39,5,3,8,14,50,29
1449106181406,3,0,1,17,56,-6,3,2,-5,0,-2
1449106181407,0,0,1,3,11,-1,-18,-13,-17,-19,5
1449106181407,0,0,1,29,34,22,51,24,23,-2,-7
1449106181408,1,0,1,117,88,5,81,2,1,-2,9
1449106181408,1,0,1,-47,-22,8,-30,-8,-3,1,-13
1449106181409,2,0,1,40,13,2,-25,0,-1,-19,-11
1449106181409,2,0,1,-68,-53,-10,-8,-12,-1,14,-12
1449106181455,3,0,1,-22,-60,-35,26,20,-3,-23,-18
1449106181455,3,0,1,16,18,11,-19,-8,1,18,10
1449106181456,0,0,1,-69,-44,5,39,5,4,-13,-7
1449106181456,2,0,1,-8,-20,-23,-17,-9,-12,-20,-10
1449106181456,0,0,1,16,37,3,2,-12,-4,15,16
1449106181456,2,0,1,16,11,-2,-15,5,-3,-16,-3
1449106181457,3,0,1,-41,-59,-16,-5,-13,-1,8,-7
1449106181457,3,0,1,42,59,33,-47,-7,8,9,-3
1449106181504,1,0,1,26,42,-11,-53,-15,-6,-12,-4
1449106181504,0,0,1,25,21,4,77,20,7,20,31
1449106181504,1,0,1,-20,-68,-2,8,1,-5,3,15
1449106181504,0,0,1,-78,-90,-12,-13,5,-6,-23,-22
1449106181505,3,0,1,-11,-55,-6,-28,-7,-8,-10,11
1449106181505,3,0,1,-55,-40,-2,14,8,2,-3,-31
1449106181506,0,0,1,21,28,22,29,6,-5,-14,-1
1449106181506,0,0,1,61,59,-8,-27,-3,7,0,16
1449106181552,1,0,1,49,109,5,-18,7,10,15,32
1449106181552,1,0,1,-55,-123,-31,-9,-10,-13,-4,-22
1449106181553,2,0,1,74,13,12,37,-12,3,20,24
1449106181553,2,0,1,-24,-47,-24,-80,-19,-28,-56,-57
1449106181554,0,0,1,-10,8,-18,-41,-13,-6,-8,-17
1449106181554,0,0,1,-10,-34,-1,-39,-8,-2,12,16
1449106181555,1,0,1,18,28,16,93,25,12,11,-6
1449106181555,1,0,1,53,36,4,-21,-4,-10,-16,-4
1449106181601,2,0,1,-62,0,4,-48,-20,-4,-1,16
1449106181601,2,0,1,-18,-63,-22,35,3,-10,-23,-27
1449106181602,3,0,1,1,89,32,11,27,18,31,15
1449106181602,3,0,1,-31,0,3,-22,-19,-13,-19,-10
1449106181602,1,0,1,38,41,-2,-9,8,10,26,23
1449106181602,1,0,1,-13,-37,-14,-32,-23,-24,-63,-56
1449106181604,2,0,1,-13,-18,-6,-22,-14,-17,-33,-18
1449106181604,2,0,1,-11,34,4,-18,-11,7,32,14
1449106181650,3,0,1,32,18,2,-5,7,4,-7,9
1449106181650,0,0,1,-89,-86,-11,-8,-9,-8,7,-15
1449106181650,0,0,1,7,-11,3,-6,2,-4,-13,-9
1449106181650,3,0,1,-63,-72,-9,18,-1,4,-7,4
1449106181699,3,0,1,-44,-26,1,12,15,-3,-7,-12
1449106181699,2,0,1,-24,-7,10,-6,-17,-11,-24,-30
1449106181699,3,0,1,19,-4,-7,-60,-15,-1,-16,3
1449106181699,2,0,1,36,-2,-4,51,24,5,2,18
1449106181700,0,0,1,6,19,11,3,4,-1,-6,1
1449106181700,0,0,1,-35,-28,9,60,11,3,11,-8
1449106181701,1,0,1,39,18,2,-23,-10,0,38,35
1449106181701,1,0,1,74,19,1,23,3,4,-11,-9
1449106181747,3,0,1,-37,-3,-11,9,-4,-9,-16,-1
1449106181747,3,0,1,8,8,11,8,-2,3,15,9
1449106181748,0,0,1,14,16,2,-20,-7,12,25,19
1449106181748,0,0,1,6,-16,-38,5,0,-15,-37,-34
1449106181749,1,0,1,2,15,16,-1,12,4,15,16
1449106181749,1,0,1,-63,-6,11,28,1,4,25,1
1449106181750,0,0,1,3,42,9,2,-6,-8,-27,-24
1449106181750,0,0,1,-4,-47,-12,-12,-14,-13,-4,4
1449106181796,1,0,1,-18,-31,-6,6,7,-3,-53,-30
1449106181796,1,0,1,43,60,-1,10,-15,-2,21,18
1449106181797,0,0,1,-29,-13,12,3,-11,-12,-26,-24
1449106181797,2,0,1,-42,4,13,25,2,2,6,0
1449106181797,0,0,1,62,46,-5,9,12,-4,1,19
1449106181797,2,0,1,-1,-34,-4,15,13,-4,-17,-15
1449106181799,1,0,1,17,0,-19,-22,-8,-6,-32,-27
1449106181799,1,0,1,-81,-41,-1,-19,-4,7,49,24
1449106181845,3,0,1,-23,-6,-2,-4,1,2,10,-8
1449106181845,3,0,1,46,9,2,-5,-3,0,14,21
1449106181845,2,0,1,44,6,-2,-25,-1,3,3,11
1449106181845,2,0,1,-15,15,6,11,-1,-1,9,4
1449106181846,1,0,1,15,38,-1,-26,5,-4,-3,1
1449106181846,1,0,1,-59,-12,6,10,5,9,-5,-9
1449106181847,2,0,1,4,43,10,-10,4,23,16,11
1449106181847,2,0,1,-40,-72,-4,34,-8,-6,19,2
1449106181894,0,0,1,-57,-19,-16,-39,-7,2,35,17
1449106181894,3,0,1,-12,-17,-1,22,13,-8,-20,-16
1449106181894,3,0,1,36,9,-1,23,-5,-17,-21,-13
1449106181894,0,0,1,-5,50,7,-17,-11,-2,20,-5
1449106181895,2,0,1,14,10,5,13,-3,-5,-35,-7
1449106181895,2,0,1,-4,-38,-16,-24,-4,-2,4,-6
1449106181896,3,0,1,-23,-15,4,22,-4,-8,8,-1
1449106181896,3,0,1,21,-2,-8,-26,-4,-1,1,10
1449106181942,0,0,1,-6,10,9,10,16,6,11,5
1449106181942,0,0,1,-7,11,8,-2,-4,-7,-49,-29
1449106181943,1,0,1,12,-14,-16,-7,-4,-2,4,0
1449106181943,1,0,1,-52,10,3,-21,-6,1,3,8
1449106181944,3,0,1,-52,-8,3,-21,-15,-7,3,-9
1449106181944,3,0,1,17,-22,-9,0,12,7,-10,-13
1449106181945,0,0,1,10,1,-5,-10,-1,0,19,3
1449106181945,0,0,1,-10,0,-11,-13,-2,-3,4,8
1449106181991,1,0,1,-4,-15,-6,1,-3,-9,-40,-22
1449106181991,1,0,1,55,34,13,32,9,18,57,37
1449106181992,2,0,1,-65,-61,-14,-20,-1,-11,-29,-31
1449106181992,2,0,1,-3,5,-16,-22,-9,-7,-18,-12
1449106181993,0,0,1,-59,-38,-11,19,12,5,-6,-9
1449106181993,0,0,1,0,-22,6,-6,-7,-8,-16,-7
1449106181994,1,0,1,19,14,-6,-26,-9,6,62,21
1449106181994,1,0,1,7,-34,-5,19,-3,-20,-56,-28
1449106182040,2,0,1,8,31,14,10,11,4,33,20
1449106182040,2,0,1,-5,30,10,-10,-7,1,-27,-18
1449106182041,3,0,1,-8,-1,1,-22,-13,-9,-7,-5
1449106182041,1,0,1,22,-9,16,64,3,0,16,37
1449106182041,3,0,1,28,-14,-3,14,15,13,18,26
1449106182041,1,0,1,-45,0,-3,-50,-4,-1,-17,-21
1449106182042,2,0,1,18,0,-11,21,10,-9,-32,-21
1449106182042,2,0,1,-16,32,3,10,-3,2,19,9
1449106182089,3,0,2,15,24,-11,-53,-17,1,3,-1
1449106182089,0,0,2,-67,-36,5,-9,-5,-1,-12,-20
1449106182089,3,0,2,31,0,7,33,11,5,16,19
1449106182089,0,0,2,31,-9,-8,-3,2,-5,-5,3
1449106182090,2,0,2,18,10,-3,-7,-16,-19,-32,-8
1449106182090,2,0,2,28,35,13,1,9,24,77,38
1449106182091,3,0,2,-77,-76,-13,17,8,-11,-83,-57
1449106182091,3,0,2,-39,7,4,-41,7,-8,-32,-21
1449106182137,0,0,2,33,42,7,69,17,17,14,15
1449106182137,0,0,2,-12,-53,-11,-6,-12,-13,-16,-2
1449106182138,1,0,2,16,19,-5,14,5,1,-8,-11
1449106182138,1,0,2,29,9,1,-20,-2,8,34,27
1449106182139,2,0,2,26,65,5,-9,-2,-4,-13,-7
1449106182139,2,0,2,-14,-46,-2,-20,-5,5,11,12
1449106182140,3,0,2,-36,4,5,38,13,7,10,5
1449106182140,3,0,2,3,-7,-7,-28,-16,-8,-12,-12
1449106182186,0,0,2,-4,-3,3,-24,3,6,24,17
1449106182186,0,0,2,-48,-44,-15,5,-3,2,14,-5
1449106182187,1,0,2,65,9,-15,-18,-4,-10,-32,-9
1449106182187,3,0,2,-29,-31,-24,-2,-3,-2,15,1
1449106182187,1,0,2,-42,-46,-11,-1,-5,-6,-18,-22
1449106182187,3,0,2,1,-52,-22,-51,-9,-2,-2,-14
1449106182189,0,0,2,30,-13,-4,44,15,1,-8,13
1449106182189,0,0,2,4,61,24,9,-1,6,17,9
1449106182235,1,0,2,30,27,20,26,-1,-3,6,-3
1449106182235,1,0,2,-54,-51,-11,-18,3,8,11,11
1449106182236,0,0,2,3,-7,-6,-9,5,6,-9,-1
1449106182236,2,0,2,-12,22,-12,-31,-6,-5,7,-12
1449106182236,2,0,2,64,73,10,-15,0,6,12,15
1449106182236,0,0,2,-65,-49,-12,-15,-8,-13,-7,-16
1449106182237,1,0,2,-12,39,15,-12,-3,2,9,-10
1449106182237,1,0,2,77,36,-2,14,3,1,11,13
1449106182284,3,0,2,-7,21,1,-40,-7,1,-2,-2
1449106182284,2,0,2,-44,-51,-18,-20,-3,7,17,9
1449106182284,3,0,2,-15,23,14,30,14,-2,-3,7
1449106182284,2,0,2,31,17,4,27,-5,-9,-28,-3
1449106182285,1,0,2,-24,-27,-15,-13,-10,-14,-11,-22
1449106182285,1,0,2,22,-8,-5,4,15,3,-27,2
1449106182286,2,0,2,30,-4,2,12,15,7,4,16
1449106182286,2,0,2,3,25,10,6,0,7,24,22
1449106182332,3,0,2,54,35,2,-11,-6,5,4,9
1449106182332,3,0,2,-37,-22,4,14,-12,-9,-4,-19
1449106182333,0,0,2,-27,-2,-3,-35,-7,-4,-4,-2
1449106182333,0,0,2,35,-57,-23,28,2,-5,-7,-3
1449106182334,2,0,2,-51,-61,-28,-47,-12,-21,-47,-39
1449106182334,2,0,2,68,32,11,69,11,15,48,29
1449106182335,3,0,2,32,48,11,-11,-5,11,1,5
1449106182335,3,0,2,55,-15,-1,32,12,-3,8,-2
1449106182381,0,0,2,-19,-23,0,-31,-6,-2,1,-5
1449106182381,0,0,2,-15,75,16,3,-3,1,0,13
1449106182382,1,0,2,21,4,2,21,11,17,47,29
1449106182382,1,0,2,-79,-47,-5,-40,-33,-25,-37,-22
1449106182430,3,0,2,-13,-3,5,8,9,6,1,0
1449106182430,0,0,2,0,-3,1,-6,2,0,-11,-3
1449106182430,0,0,2,5,21,5,-9,-8,4,21,30
1449106182430,3,0,2,1,-1,3,10,6,11,10,2
1449106182431,1,0,2,-55,-40,-9,-14,-6,-11,-38,-59
1449106182431,1,0,2,33,3,-16,15,-7,-5,5,10
1449106182432,2,0,2,-4,-7,1,-19,-5,-8,-25,-9
1449106182432,2,0,2,8,7,11,-5,4,4,8,6
1449106182479,1,0,2,10,29,1,19,11,-3,2,13
1449106182479,0,0,2,-53,-13,-4,-22,-11,-7,-14,-24
1449106182479,0,0,2,52,15,-3,-3,4,15,24,26
1449106182479,1,0,2,-12,-34,10,19,8,-7,-29,-12
1449106182480,2,0,2,29,2,-11,-7,-7,-1,1,-9
1449106182480,2,0,2,-5,9,-8,0,-4,-6,0,-3
1449106182481,0,0,2,1,0,5,27,1,-1,-26,-8
1449106182481,0,0,2,-38,-81,-11,-13,-1,-4,-15,-23
1449106182527,1,0,2,15,-6,0,-11,-10,-7,7,9
1449106182527,1,0,2,-6,-17,-22,-17,-6,6,9,-2
1449106182528,2,0,2,-26,-22,5,-4,5,-4,-6,-4
1449106182528,2,0,2,-24,0,-1,-2,0,-3,-11,-8
1449106182529,1,0,2,13,-7,-4,4,6,16,0,-2
1449106182529,1,0,2,13,7,2,4,13,12,11,5
1449106182530,2,0,2,-55,-20,-2,0,2,1,-6,-25
1449106182530,2,0,2,-1,11,-8,-1,1,-2,-8,-4
1449106182576,3,0,2,24,16,5,-10,-2,-2,-6,8
1449106182576,3,0,2,6,15,4,0,-8,-10,5,1
1449106182577,2,0,2,-3,-9,-1,-8,-6,-6,4,6
1449106182577,2,0,2,16,15,0,2,1,2,-2,-9
1449106182577,0,0,2,18,13,-1,-3,-1,0,-10,4
1449106182577,0,0,2,-9,-45,-7,12,1,2,4,-4
1449106182579,3,0,2,6,1,9,-3,-1,-4,-1,7
1449106182579,3,0,2,-4,16,13,11,-1,6,-3,-3
1449106182625,0,0,2,0,-9,-7,-10,-5,-23,-16,-1
1449106182625,0,0,2,-22,4,1,7,-1,1,-1,-13
1449106182626,3,0,2,20,-4,-3,-3,-2,3,2,11
1449106182626,1,0,2,15,-5,2,-3,0,-6,5,6
1449106182626,1,0,2,-21,-13,-5,1,-9,-20,-13,-19
1449106182626,3,0,2,-22,2,10,1,-7,-13,14,19
1449106182627,0,0,2,-1,6,-23,-5,-4,-12,-10,14
1449106182627,0,0,2,1,-7,-8,-2,4,1,9,-15
1449106182674,1,0,2,-21,-7,-16,-9,-4,13,-3,-29
1449106182674,2,0,2,69,36,33,-8,-3,-6,-3,82
1449106182674,1,0,2,16,8,70,39,12,-2,20,18
1449106182674,2,0,2,-26,-19,-35,-8,-3,19,-18,-77
1449106182675,0,0,2,-30,-18,-51,-18,-11,-14,-15,-63
1449106182675,0,0,2,-2,16,63,3,-4,-1,21,4
1449106182676,1,0,2,35,25,29,-2,1,4,9,53
1449106182676,1,0,2,9,-5,18,-4,0,-5,-16,-17
1449106182722,2,0,2,1,5,29,15,4,-5,-1,10
1449106182722,2,0,2,-5,13,-34,5,5,5,3,7
1449106182723,3,0,2,-30,-41,-74,-41,-17,-8,-1,-26
1449106182723,3,0,2,-1,2,61,0,-8,-13,-23,-23
1449106182724,1,0,2,3,-13,-46,-1,1,-4,-3,4
1449106182724,1,0,2,6,20,5,-16,-9,2,-2,-2
1449106182725,2,0,2,-5,0,2,-9,-4,-6,-4,3
1449106182725,2,0,2,-9,-17,8,11,6,5,2,-6
1449106182771,3,0,2,8,17,34,14,0,-6,2,17
1449106182771,3,0,2,8,-9,-40,-15,-4,-2,-4,6
1449106182772,2,0,2,-31,-15,2,-10,-1,4,-2,-12
1449106182772,0,0,2,3,4,-22,-22,-6,1,-1,10
1449106182772,0,0,2,-14,4,34,7,-4,-11,-11,-36
1449106182772,2,0,2,17,-5,-4,-6,-5,-11,-4,10
1449106182774,3,0,2,-16,-9,-34,-8,1,-1,0,-14
1449106182774,3,0,2,19,13,10,16,3,0,-2,10
1449106182820,1,0,2,-8,-8,-23,1,8,8,-2,-12
1449106182820,0,0,2,-1,3,12,17,0,-12,-11,-28
1449106182820,0,0,2,4,1,6,-1,-4,2,8,26
1449106182820,1,0,2,6,1,13,-15,-5,-1,-2,11
1449106182821,2,0,2,8,15,20,-2,-8,-2,1,9
1449106182821,2,0,2,-3,-6,-20,-4,0,0,1,11
1449106182822,3,0,2,4,-2,5,9,4,0,-2,-5
1449106182822,3,0,2,-6,-23,-16,0,2,1,1,-1
1449106182869,0,0,2,5,3,-8,-1,1,5,3,3
1449106182869,0,0,2,-1,14,0,-9,-5,-5,0,3
1449106182869,1,0,2,-1,8,20,3,-2,-6,-2,-2
1449106182869,1,0,2,1,8,-6,-2,0,1,-1,-4
1449106182870,3,0,2,1,1,-2,-5,-5,2,3,4
1449106182870,3,0,2,0,-1,15,10,5,-7,-8,-1
1449106182871,0,0,2,-6,-10,11,-8,-2,-2,0,-5
1449106182871,0,0,2,2,3,-23,-5,0,4,1,5
1449106182917,1,0,2,0,9,63,18,1,-1,-4,-1
1449106182917,1,0,2,1,-2,-35,-11,-4,5,0,1
1449106182918,2,0,2,-4,-3,18,-1,-2,-5,2,-2
1449106182918,2,0,2,-4,-15,-37,-7,-1,1,2,-10
1449106182919,0,0,2,11,8,13,0,2,4,13,21
1449106182919,0,0,2,3,2,7,2,-3,-5,-8,4
1449106182920,1,0,2,2,6,7,4,2,-3,-6,-8
1449106182920,1,0,2,1,-10,-7,-8,-8,-4,-2,7
1449106182966,2,0,2,-7,-4,-18,-4,1,4,0,-3
1449106182966,2,0,2,4,20,26,6,1,1,-2,3
1449106182967,1,0,2,-2,-22,-25,-4,-2,-4,-2,-2
1449106182967,3,0,2,-2,-15,-9,-2,2,3,-1,-1
1449106182967,1,0,2,2,7,14,0,-5,-3,-1,-4
1449106182967,3,0,2,0,-3,-19,-1,2,3,2,-3
1449106182969,2,0,2,-1,-2,18,8,-2,1,2,-2
1449106182969,2,0,2,-3,-3,-9,3,0,1,2,-1
1449106183015,3,0,2,-4,5,17,6,-3,-3,1,-7
1449106183015,0,0,2,1,4,-22,-2,1,4,1,0
1449106183015,0,0,2,-3,-2,-18,-15,-4,-6,-6,1
1449106183015,3,0,2,2,2,-10,-6,0,-4,-3,5
1449106183016,2,0,2,-5,-4,-4,-6,-4,-8,-12,-10
1449106183016,2,0,2,-2,10,22,3,-2,2,3,-2
1449106183017,3,0,2,-5,0,-15,-9,-3,-3,-3,-6
1449106183017,3,0,2,6,4,4,3,0,5,8,6
1449106183064,0,0,2,-2,-8,-8,4,7,4,1,-3
1449106183064,0,0,2,9,-2,12,3,1,-2,3,13
1449106183064,1,0,2,-7,-28,-24,-11,-4,-2,-3,0
1449106183064,1,0,2,-19,4,7,4,-1,0,-2,-10
1449106183065,3,0,2,-1,7,8,-3,-3,-1,-5,-13
1449106183065,3,0,2,1,-14,6,2,0,-2,1,6
1449106183066,0,0,2,-6,-3,3,1,-4,-5,-3,-2
1449106183066,0,0,2,-2,-9,-20,-3,-1,-1,-1,1
1449106183119,1,0,2,0,6,16,-1,0,3,-3,-3
1449106183119,1,0,2,3,2,11,1,-3,-5,-2,2
1449106183120,2,0,2,-8,-15,-21,-21,-5,-3,-4,-7
1449106183120,2,0,2,10,16,-35,4,4,1,1,5
1449106183162,0,0,2,-6,-8,-9,-3,-8,-4,-2,-2
1449106183162,0,0,2,7,6,-9,2,3,1,1,9
1449106183163,1,0,2,0,3,-10,2,1,1,-3,2
1449106183163,2,0,2,0,0,8,2,4,2,3,11
1449106183163,2,0,2,-4,-7,8,-8,-2,0,-3,-13
1449106183163,1,0,2,2,6,2,-1,3,4,1,-3
1449106183164,3,0,2,1,7,-2,4,5,-2,0,3
1449106183164,3,0,2,0,-8,-2,-5,-9,-8,-5,-2
1449106183210,1,0,2,-5,-7,-7,-4,0,1,3,-2
1449106183210,1,0,2,-8,5,-11,0,2,4,0,-16
1449106183211,3,0,2,2,4,-34,-6,1,2,0,0
1449106183211,2,0,2,-3,3,6,0,-3,-2,-1,-5
1449106183211,2,0,2,-1,-8,8,1,-1,-4,-1,2
1449106183211,3,0,2,4,7,2,4,2,1,1,8
1449106183212,1,0,2,-1,3,5,5,7,5,1,2
1449106183212,1,0,2,-5,-11,14,-7,-6,-6,-5,-1
1449106183259,2,0,2,0,-3,-13,-6,-1,-1,-1,-1
1449106183259,2,0,2,-2,-8,-3,1,1,0,-1,-4
1449106183259,3,0,2,0,1,3,-1,-1,-1,1,1
1449106183259,3,0,2,3,18,-4,-10,-8,-7,-4,-1
1449106183260,2,0,2,0,3,11,7,3,1,0,-11
1449106183260,2,0,2,0,7,3,0,-3,-1,4,-5
1449106183261,3,0,2,1,-21,-21,-7,-2,-3,2,13
1449106183261,3,0,2,-1,3,7,2,-2,-1,-1,1
1449106183307,0,0,2,-2,-3,1,0,1,-3,-2,1
1449106183307,0,0,2,-2,-5,-6,0,2,2,0,-9
1449106183308,1,0,2,1,-1,0,4,-3,-3,-1,-1
1449106183308,1,0,2,-5,-12,7,-2,-6,-5,-3,-3
1449106183309,3,0,2,-2,-1,-17,3,8,4,2,-1
1449106183309,3,0,2,-1,-4,-2,-5,-1,-2,-2,-1
1449106183310,0,0,2,-1,-3,-17,-3,0,0,-2,-5
1449106183310,0,0,2,-5,-5,2,-4,-4,-2,1,2
1449106183356,1,0,2,3,1,-8,2,-2,-1,-2,-4
1449106183356,1,0,2,0,10,1,-5,-6,-4,-3,-4
1449106183357,0,0,2,5,0,-1,-6,-6,-1,2,7
1449106183357,2,0,2,2,-4,-5,5,1,0,1,5
1449106183357,0,0,2,1,0,-3,0,2,1,-1,-1
1449106183357,2,0,2,-4,-7,9,0,1,1,1,1
1449106183359,1,0,2,-1,-8,-1,0,1,-1,-1,0
1449106183359,1,0,2,-2,0,5,-1,-2,-1,-3,-3
1449106183405,3,0,2,-1,-1,5,6,7,5,2,1
1449106183405,2,0,2,-5,-3,-3,-4,-8,-7,-6,-15
1449106183405,2,0,2,-3,-5,1,0,2,2,-1,4
1449106183405,3,0,2,-4,1,1,-2,-1,-1,0,-3
1449106183406,1,0,2,0,1,8,4,-4,-4,-2,-2
1449106183406,1,0,2,0,-1,-2,-1,4,2,1,7
1449106183407,2,0,2,-1,-4,18,1,-1,0,1,1
1449106183407,2,0,2,1,2,-33,-9,-4,-1,-2,-3
1449106183454,0,0,2,12,4,-5,0,-1,0,5,13
1449106183454,3,0,2,-1,5,1,-2,-1,-3,-2,-6
1449106183454,0,0,2,-5,-4,-2,0,2,-1,-3,-7
1449106183454,3,0,2,-1,-19,-8,-4,-2,1,1,1
1449106183455,2,0,2,-2,1,-15,-5,-2,-2,-2,-6
1449106183455,2,0,2,-6,-3,-1,-2,2,3,-2,-3
1449106183456,3,0,2,-2,5,12,1,1,-2,-3,-3
1449106183456,3,0,2,5,-4,2,0,-5,-4,0,9
1449106183502,0,0,2,5,7,18,4,0,-1,-1,0
1449106183502,0,0,2,-2,-6,-6,-3,-3,-3,0,-1
1449106183503,1,0,2,-8,0,-12,-4,-4,-3,-10,-25
1449106183503,1,0,2,-9,-7,-15,-1,-1,-1,2,3
1449106183504,3,0,2,0,-8,-4,-4,-7,-2,2,2
1449106183504,3,0,2,4,-7,-16,-6,-7,-5,-7,-3
1449106183505,0,0,2,-4,4,13,7,8,2,0,-2
1449106183505,0,0,2,-1,0,-6,0,1,0,0,-2
1449106183551,1,0,2,0,4,-3,1,4,1,1,-2
1449106183551,1,0,2,-2,0,6,-1,-4,-1,-2,-6
1449106183552,2,0,2,0,-1,8,1,-3,-2,1,5
1449106183552,2,0,2,3,-11,-5,-1,2,0,1,5
1449106183553,3,0,2,3,0,-14,-7,-2,-1,3,8
1449106183553,3,0,2,-14,10,16,9,7,2,0,-8
1449106183554,0,0,2,-2,2,-4,2,2,-2,-3,-4
1449106183554,0,0,2,0,4,11,-1,-4,-2,-1,-2
1449106183600,1,0,2,-2,-10,3,6,7,4,1,2
1449106183600,1,0,2,2,-6,-9,-6,-6,-2,-2,-3
1449106183600,2,0,2,-5,2,8,2,0,-1,2,-4
1449106183600,2,0,2,0,4,-5,-2,-4,-4,-1,-4
1449106183601,0,0,2,-2,5,-8,-3,-3,-3,-3,-9
1449106183601,0,0,2,-3,-8,10,2,9,4,1,-3
1449106183603,1,0,2,-2,-7,-4,-2,-4,-4,-2,4
1449106183603,1,0,2,7,5,14,2,-1,-1,-1,11
1449106183649,3,0,2,-18,-5,16,8,12,6,5,-3
1449106183649,2,0,2,5,5,-11,-1,3,1,1,0
1449106183649,3,0,2,1,0,2,-4,-6,-3,-6,-10
1449106183649,2,0,2,-4,0,-7,-4,-6,-3,-4,-10
1449106183650,1,0,2,8,6,-9,0,-2,1,0,-4
1449106183650,1,0,2,2,1,-1,0,4,2,3,9
1449106183653,2,0,2,-6,-5,3,1,1,0,-2,-5
1449106183653,2,0,2,-4,-9,-20,-3,-3,-1,-3,-1
1449106183698,3,0,2,-1,8,6,-4,-8,-6,-2,-2
1449106183698,0,0,2,9,6,3,0,5,2,-2,-5
1449106183698,3,0,2,-1,-7,-1,-2,-2,-2,1,1
1449106183698,0,0,2,-5,-5,2,1,0,-2,-1,8
1449106183699,2,0,2,-4,8,10,-1,3,1,0,-3
1449106183699,2,0,2,-10,-10,-4,-5,-5,-6,-5,-11
1449106183700,3,0,2,2,-4,-13,-1,-1,0,-2,4
1449106183700,3,0,2,2,-3,-13,-5,-3,-2,-4,-6
1449106183746,0,0,2,-8,5,38,7,0,2,1,0
1449106183746,0,0,2,-4,-5,-12,-2,0,-1,-1,-7
1449106183747,1,0,2,4,-2,-3,2,3,2,1,3
1449106183747,3,0,2,0,-2,-1,2,0,1,-1,-5
1449106183747,3,0,2,-2,1,3,2,3,1,0,-2
1449106183747,1,0,2,-3,0,-3,-3,-3,-1,1,-4
1449106183749,0,0,2,0,0,-4,-4,-5,-4,4,13
1449106183749,0,0,2,0,-6,6,-5,-6,-4,-9,-28
1449106183795,1,0,2,5,-2,-20,-1,4,-1,1,10
1449106183795,1,0,2,1,7,53,4,-5,-3,-3,-6
1449106183796,0,0,2,0,-3,3,1,-2,0,1,8
1449106183796,0,0,2,3,-4,-7,2,3,1,0,-1
1449106183796,2,0,2,0,-9,-12,-2,-2,1,0,3
1449106183796,2,0,2,3,3,2,0,1,2,1,7
1449106183797,1,0,2,-6,-12,-13,-6,-4,-4,-3,-4
1449106183797,1,0,2,-1,19,2,-1,-2,-2,-3,-7
1449106183844,2,0,2,-4,3,-4,4,5,4,0,-1
1449106183844,3,0,2,2,-7,2,0,4,1,1,6
1449106183844,2,0,2,4,-1,0,-4,-4,-3,0,7
1449106183844,3,0,2,3,6,-9,-2,-2,-3,-2,-5
1449106183893,2,0,2,1,1,-1,-1,-3,-2,0,6
1449106183893,2,0,2,6,-1,-5,1,0,2,2,0
1449106183893,1,0,2,2,-1,4,-4,-10,-6,-4,-2
1449106183893,1,0,2,-3,4,-11,-2,3,1,1,6
1449106183894,3,0,2,-4,-5,5,-2,-7,-3,-2,-10
1449106183894,3,0,2,-3,-5,-12,-3,0,-3,0,-2
1449106183895,0,0,2,-1,-1,3,-1,-4,-2,-4,7
1449106183895,0,0,2,3,7,-9,-3,-3,1,3,17
1449106183941,1,0,2,-6,-19,-30,-9,-6,-5,-4,-8
1449106183941,1,0,2,-3,-9,12,4,3,2,-3,-16
1449106183942,3,0,2,5,27,14,3,2,2,0,7
1449106183942,2,0,2,-11,-3,-8,-3,-2,-2,-2,6
1449106183942,2,0,2,7,6,3,1,-3,-1,1,-5
1449106183942,3,0,2,3,-10,-3,0,-3,0,3,12
1449106183944,2,0,2,-2,-4,2,2,2,2,-1,-8
1449106183944,2,0,2,3,5,20,3,-1,0,1,3
1449106183990,0,0,2,-1,1,16,0,-8,-5,-4,-15
1449106183990,3,0,2,4,-2,5,1,2,-2,1,2
1449106183990,3,0,2,-1,4,14,0,-4,1,-2,-2
1449106183990,0,0,2,-1,-2,-13,-4,3,1,2,15
1449106183991,3,0,2,-2,9,17,3,-5,-1,-3,-4
1449106183991,3,0,2,-1,-1,-16,-3,2,0,1,5
1449106183992,0,0,2,4,5,-2,0,-3,-2,-1,-1
1449106183992,0,0,2,-1,0,9,1,-3,-2,-3,-4
1449106184039,1,0,2,2,-6,-13,-3,3,3,0,4
1449106184039,1,0,2,2,-6,-24,-5,1,-1,2,16
1449106184040,2,0,2,-2,0,8,-1,1,0,-2,-6
1449106184040,2,0,2,-4,2,-7,-1,-3,-1,0,-10
1449106184040,0,0,2,7,8,-10,-8,-8,-6,-2,3
1449106184040,0,0,2,-14,9,5,2,1,2,0,-5
1449106184042,1,0,2,4,10,-1,-6,-8,-3,1,4
1449106184042,1,0,2,-9,-17,3,4,6,2,-3,-10
1449106184087,2,0,2,2,-2,-2,1,5,-1,-3,-4
1449106184087,2,0,2,-1,-4,-3,0,-1,4,1,-3
1449106184089,1,0,2,-3,1,-7,0,-6,-4,-1,-11
1449106184089,3,0,2,-1,6,5,0,-3,-3,-2,5
1449106184089,3,0,2,-1,-3,-2,-1,1,-1,-1,-2
1449106184089,1,0,2,-1,-5,14,2,1,1,-3,-3
1449106184090,2,0,2,-5,-2,-2,0,0,-1,1,8
1449106184090,2,0,2,2,2,1,2,1,2,0,4
1449106184136,3,0,2,-13,-16,-8,-8,-9,-10,-5,-11
1449106184136,3,0,2,5,3,4,0,-1,-1,0,3
1449106184137,0,0,2,-17,-4,-8,4,4,-1,-3,-20
1449106184137,0,0,2,6,-1,-4,0,3,7,2,4
1449106184138,2,0,2,-1,-2,6,-1,-4,-6,-4,-5
1449106184138,2,0,2,3,-11,-9,-5,-6,-1,-1,4
1449106184139,3,0,2,2,7,5,1,2,2,1,-1
1449106184139,3,0,2,-1,0,-9,-3,-2,-1,0,-2
1449106184185,0,0,2,-2,-3,24,3,-6,-4,-2,0
1449106184185,0,0,2,7,3,-7,-2,8,4,1,6
1449106184186,1,0,2,2,2,-8,-4,-3,-2,0,6
1449106184186,1,0,2,-3,1,10,4,3,1,-4,-9
1449106184187,0,0,2,-4,-14,-6,-1,-2,-2,-2,-1
1449106184187,3,0,2,2,4,11,4,-1,1,2,0
1449106184187,3,0,2,0,-2,1,-3,-2,-1,0,7
1449106184187,0,0,2,1,7,-12,-3,-1,1,-3,-8
1449106184234,2,0,2,2,-2,-25,-5,-1,-2,-1,4
1449106184234,1,0,2,-4,8,3,3,2,3,1,3
1449106184234,2,0,2,-9,5,18,4,-1,2,2,-7
1449106184234,1,0,2,4,-5,-26,-4,0,-1,-2,-5
1449106184235,3,0,2,-13,-2,1,0,0,-2,0,-5
1449106184235,3,0,2,9,4,4,-1,2,-2,-2,1
1449106184239,0,0,2,-4,-10,-4,0,-1,-1,-2,-4
1449106184239,0,0,2,1,-4,-1,-2,-2,-1,-2,4
1449106184283,2,0,2,1,6,13,-1,-5,-3,0,3
1449106184283,2,0,2,6,9,5,3,2,-1,-1,-1
1449106184283,1,0,2,-2,-4,-5,-3,-2,2,1,-4
1449106184283,1,0,2,3,-1,5,-3,-4,-3,-5,0
1449106184284,0,0,2,4,1,0,-1,1,-4,-2,6
1449106184284,0,0,2,-7,-6,-7,0,-2,0,0,-8
1449106184285,1,0,2,-2,-4,-11,-4,-5,-3,-3,0
1449106184285,1,0,2,-3,-2,6,2,1,0,0,-4
1449106184331,2,0,2,3,17,12,0,-4,-3,-2,-1
1449106184331,2,0,2,0,-7,-24,-6,-4,-2,-2,1
1449106184333,3,0,2,-15,13,19,7,4,4,1,-4
1449106184333,1,0,2,-4,9,13,1,-3,-2,-2,-5
1449106184333,1,0,2,-3,-2,-23,-2,5,1,-1,6
1449106184333,3,0,2,0,-13,15,-1,-8,-6,-2,-2
1449106184334,2,0,2,-2,-9,-13,-3,-2,-1,-1,-5
1449106184334,2,0,2,0,3,1,-3,-4,-2,-1,-2
1449106184380,3,0,2,2,-11,-19,-4,0,1,0,-1
1449106184380,3,0,2,-3,-1,14,1,-4,-3,-1,-4
1449106184383,0,0,2,1,9,10,2,3,1,1,7
1449106184383,2,0,2,1,2,-1,-1,2,3,0,-1
1449106184383,0,0,2,0,-6,2,1,-3,0,0,-5
1449106184383,2,0,2,0,-3,-1,4,3,-2,1,2
1449106184384,3,0,2,-4,3,1,2,0,-1,-2,-3
1449106184384,3,0,2,-1,-9,4,1,0,0,0,1
1449106184429,0,0,2,0,6,4,-3,-3,-2,-2,0
1449106184429,1,0,2,6,8,-3,-1,1,0,1,-3
1449106184429,1,0,2,-2,-14,-25,-6,-4,-5,-3,2
1449106184429,0,0,2,-4,-4,-2,-7,-6,-3,-4,-4
1449106184430,3,0,2,1,6,-1,2,2,-1,2,7
1449106184430,3,0,2,4,-3,-1,-3,-3,-1,-1,1
1449106184431,0,0,2,0,12,-2,-2,-1,-1,-1,-1
1449106184431,0,0,2,1,-2,0,0,-3,-3,0,0
1449106184478,1,0,2,-2,-8,1,0,4,0,-1,-2
1449106184478,2,0,2,0,-2,-6,-2,-1,-3,-2,6
1449106184478,1,0,2,-7,2,-8,-4,-2,-1,-2,-8
1449106184478,2,0,2,-1,-5,-4,-2,-1,2,-3,-11
1449106184479,0,0,2,-33,-18,3,2,-3,-1,-5,-11
1449106184479,0,0,2,-3,-9,-9,-8,-1,-2,0,2
1449106184480,1,0,2,-4,-5,21,-5,-4,-3,-1,0
1449106184480,1,0,2,-1,-3,-12,2,0,0,-1,-4
1449106184526,2,0,2,12,12,5,2,0,0,1,-4
1449106184526,2,0,2,9,1,-12,-7,-5,-1,0,9
1449106184527,3,0,2,-27,-18,-5,-3,-3,-3,-3,-13
1449106184527,1,0,2,6,6,3,2,4,1,0,1
1449106184527,1,0,2,-3,-10,-10,-2,-2,-2,-2,-2
1449106184527,3,0,2,1,1,-1,2,2,1,1,2
1449106184529,2,0,2,-4,-6,4,-3,-4,-2,-1,-2
1449106184529,2,0,2,-1,-2,-2,3,6,2,-2,-3
1449106184575,3,0,2,3,3,6,-5,-10,-8,-3,2
1449106184575,3,0,2,2,2,3,3,7,6,3,2
1449106184576,0,0,2,13,8,-9,-1,0,-1,1,4
1449106184576,0,0,2,-6,15,14,6,1,2,1,-3
1449106184624,2,0,2,-1,-1,-1,-1,1,-1,-4,-1
1449106184624,3,0,2,8,9,9,3,-2,1,1,2
1449106184624,3,0,2,-2,1,-13,-9,-6,-4,-6,-7
1449106184624,2,0,2,-6,-7,-12,-13,-6,-7,-3,-2
1449106184625,0,0,2,7,-1,1,1,0,1,3,10
1449106184625,0,0,2,-5,-4,0,3,0,0,2,-1
1449106184626,1,0,2,9,10,7,4,1,1,2,2
1449106184626,1,0,2,1,-5,1,2,0,-1,2,1
1449106184672,2,0,2,6,7,1,2,0,2,-2,-2
1449106184672,2,0,2,9,-3,6,0,-4,-3,-1,5
1449106184673,3,0,2,-44,-15,-30,-3,4,2,-1,-5
1449106184673,3,0,2,16,12,2,4,-2,0,4,8
1449106184674,3,0,2,-26,5,-2,9,2,7,14,11
1449106184674,3,0,2,-46,-29,66,20,1,-3,-5,-13
1449106184721,0,0,2,7,-26,-7,-18,1,-1,-4,10
1449106184721,0,0,2,-100,-72,-47,-24,-11,-10,-10,-22
1449106184722,1,0,2,82,17,4,11,-2,-2,-2,-2
1449106184722,2,0,2,-60,-68,-3,-14,-16,-16,-33,-8
1449106184722,1,0,2,94,40,-27,-11,3,6,11,20
1449106184722,2,0,2,-14,10,26,5,-2,-3,-10,-16
1449106184724,0,0,2,39,31,7,-31,-11,7,24,19
1449106184724,0,0,2,12,34,3,-6,9,8,9,8
1449106184770,1,0,2,-24,-30,-6,51,-6,-13,-38,-26
1449106184770,1,0,2,48,25,7,19,-13,-1,-13,-12
1449106184771,2,0,2,-82,-21,13,-53,-34,-19,-45,-46
1449106184771,2,0,2,61,37,-19,-8,23,17,69,81
1449106184776,1,0,2,19,16,17,-24,-16,7,32,7
1449106184776,3,0,2,3,30,6,-94,-23,10,56,26
1449106184776,1,0,2,-14,45,8,29,-8,-12,-33,5
1449106184776,3,0,2,51,-3,-6,25,39,11,3,36
1449106184819,2,0,2,-60,-72,-8,-98,-57,-20,-13,-13
1449106184819,3,0,2,-89,-12,-1,28,4,8,5,2
1449106184819,2,0,2,66,57,0,33,55,6,1,5
1449106184819,3,0,2,-46,-14,4,-3,13,5,7,-16
1449106184820,2,0,2,105,116,22,-23,5,21,34,40
1449106184820,2,0,2,-78,-72,-14,8,-9,-17,-37,-45
1449106184821,3,0,2,-61,-33,0,17,15,2,7,-19
1449106184821,3,0,2,72,50,12,-80,-6,5,15,45
1449106184868,0,0,2,-71,-73,-36,89,22,-15,-52,-72
1449106184868,1,0,2,26,25,32,51,-20,8,-10,-17
1449106184868,1,0,2,-79,-88,-56,-49,9,-46,-94,-95
1449106184868,0,0,2,57,58,0,13,-9,12,58,48
1449106184869,3,0,2,27,41,2,27,36,18,60,52
1449106184869,3,0,2,29,50,26,-1,-5,2,22,11
1449106184870,0,0,2,58,35,1,19,1,4,32,15
1449106184870,0,0,2,-22,-46,-10,53,15,-2,-34,-7
1449106184916,1,0,2,47,10,22,50,9,8,6,28
1449106184916,1,0,2,-52,-45,-36,-71,-21,-16,-60,-45
1449106184917,0,0,2,-53,-39,19,8,-13,4,6,-27
1449106184917,2,0,2,-94,-78,-19,-36,-19,-28,-42,-74
1449106184917,2,0,2,3,50,31,9,-8,7,17,-11
1449106184917,0,0,2,11,1,-23,-46,2,-4,8,15
1449106184919,1,0,2,26,4,21,-7,-30,-13,-9,-13
1449106184919,1,0,2,-39,-82,-30,64,41,1,-27,-23
1449106184965,2,0,2,-114,-95,-16,-21,-17,-18,-44,-54
1449106184965,3,0,2,-91,-110,-21,-21,-32,-28,-45,-53
1449106184965,2,0,2,125,119,36,12,24,25,61,73
1449106184965,3,0,2,119,127,17,-52,-3,12,21,34
1449106184966,0,0,2,15,36,15,51,33,23,37,29
1449106184966,0,0,2,84,56,3,30,6,5,12,-3
1449106184967,1,0,2,45,42,8,3,-3,1,-8,3
1449106184967,1,0,2,34,-80,-19,-5,-6,-12,-33,14
1449106185014,2,0,2,-75,14,0,-110,-36,-3,14,-15
1449106185014,2,0,2,-34,-58,-11,86,46,3,16,-12
1449106185014,3,0,2,-6,-65,-13,-2,-8,-12,-44,-34
1449106185014,3,0,2,3,12,-4,-32,-17,-8,-11,-3
1449106185015,1,0,2,-46,-27,-33,-60,0,10,58,29
1449106185015,1,0,2,15,-17,11,46,-4,-1,-4,-7
1449106185016,2,0,2,-74,-43,0,4,13,3,-8,-8
1449106185016,2,0,2,-21,-47,-13,-18,-12,-16,-9,-6
1449106185062,3,0,2,26,67,6,-2,-3,-3,-13,-4
1449106185062,3,0,2,8,29,-5,-39,-13,1,15,8
1449106185063,0,0,2,-6,-36,0,89,26,17,51,61
1449106185063,0,0,2,24,40,-10,-36,-4,-8,-28,-30
1449106185064,2,0,2,-34,-9,-11,-15,2,-9,-46,-35
1449106185064,2,0,2,-46,-67,-16,-37,-26,-11,14,2
1449106185065,3,0,2,34,-15,0,23,-1,-3,-2,11
1449106185065,3,0,2,-48,-46,-23,-2,9,3,4,-17
1449106185111,0,0,2,19,-15,-2,-51,-22,-5,5,17
1449106185111,0,0,2,60,64,17,23,6,7,-13,6
1449106185112,3,0,2,1,32,-1,-16,-7,-19,-64,-38
1449106185112,1,0,2,-6,62,12,16,0,3,12,0
1449106185112,1,0,2,-13,-74,-5,70,11,-7,-10,-5
1449106185112,3,0,2,-43,21,-9,-4,4,0,25,22
1449106185114,0,0,2,1,35,8,-17,-8,-3,-32,-21
1449106185114,0,0,2,-15,-18,4,38,16,6,-1,11
1449106185160,1,0,2,71,35,5,-2,4,11,49,56
1449106185160,2,0,2,19,33,-5,-38,-21,-3,19,26
1449106185160,2,0,2,104,104,1,-81,-8,5,4,17
1449106185160,1,0,2,-115,-116,-16,15,-11,-10,-21,-47
1449106185161,0,0,2,77,17,7,5,0,-3,-7,29
1449106185161,0,0,2,10,10,5,-26,-8,-3,9,12
1449106185162,1,0,2,23,-91,-9,-34,-21,-14,-6,41
1449106185162,1,0,2,5,52,5,21,13,12,31,-2
1449106185209,2,0,2,-50,14,-6,15,17,8,-18,-45
1449106185209,2,0,2,42,0,0,24,-4,-3,3,8
1449106185209,3,0,2,-56,-50,6,-7,-13,-9,-7,-7
1449106185209,3,0,2,0,32,-8,-67,-2,6,-4,-7
1449106185210,1,0,2,-43,-3,1,-13,-3,4,12,-8
1449106185210,1,0,2,29,0,-1,-37,-8,4,9,2
1449106185211,2,0,2,35,24,-5,4,-14,-11,-10,8
1449106185211,2,0,2,-38,-17,-11,14,1,-5,-19,-30
1449106185257,3,0,2,-6,-17,2,1,-11,-1,17,7
1449106185257,3,0,2,87,31,1,5,6,10,13,25
1449106185258,0,0,2,-37,17,6,18,-1,-2,-14,-9
1449106185258,0,0,2,-44,4,-7,-31,1,0,0,-29
1449106185259,2,0,2,1,10,7,25,3,3,-3,-11
1449106185259,2,0,2,34,1,-6,-23,-10,-2,13,28
1449106185260,3,0,2,-22,4,12,91,18,-2,-20,-29
1449106185260,3,0,2,-45,-34,-9,-49,-10,6,26,20
1449106185306,0,0,2,12,0,9,5,0,0,9,13
1449106185306,0,0,2,-41,-30,-5,-24,-2,-3,-9,-9
1449106185307,1,0,2,-25,-39,-11,-4,1,-6,-14,-12
1449106185307,1,0,2,30,11,9,8,1,4,15,9
1449106185309,2,0,2,2,14,2,-5,10,7,19,-4
1449106185309,2,0,2,-65,-80,-8,31,-10,-10,-13,2
1449106185355,0,0,2,-49,-44,-15,-25,-11,-10,-39,-25
1449106185355,3,0,2,-10,-22,-8,-10,-9,-4,7,4
1449106185355,0,0,2,29,52,13,-1,7,3,-5,-5
1449106185355,3,0,2,36,6,-7,-9,-10,-8,-9,5
1449106185356,1,0,2,16,45,-6,-82,-20,-3,10,3
1449106185356,1,0,2,37,10,-1,20,10,5,16,15
1449106185357,3,0,2,-18,-2,8,-8,-5,-1,-5,-2
1449106185357,3,0,2,56,76,-9,16,10,3,-2,3
1449106185404,0,0,2,7,-17,-5,-15,3,6,2,3
1449106185404,1,0,2,-45,7,2,10,-6,-5,1,-12
1449106185404,0,0,2,41,37,9,12,5,2,2,18
1449106185404,1,0,2,42,49,3,-9,-3,1,7,11
1449106185405,0,0,2,-11,6,3,6,1,-8,-2,6
1449106185405,0,0,2,-27,-18,-7,-29,-8,2,1,0
1449106185453,1,0,2,-7,20,5,5,-7,-9,-24,-28
1449106185453,2,0,2,66,43,0,-54,-31,-7,-5,14
1449106185453,2,0,2,-19,7,-6,13,25,13,18,7
1449106185453,1,0,2,15,-14,4,9,2,9,28,27
1449106185454,3,0,2,3,20,15,15,1,5,-2,-2
1449106185454,3,0,2,-66,-43,-6,15,2,-6,-12,-26
1449106185455,1,0,2,27,18,7,2,-4,-7,-30,-7
1449106185455,1,0,2,-31,-36,-4,12,-2,1,4,-6
1449106185501,2,0,2,24,25,1,7,15,12,19,7
1449106185501,2,0,2,-33,-42,-7,8,-3,-5,-19,-10
1449106185502,3,0,2,8,10,1,4,0,-1,-22,-13
1449106185502,0,0,2,-10,-31,4,14,-4,-6,-36,-28
1449106185502,3,0,2,-3,-5,-5,-5,1,4,28,14
1449106185502,0,0,2,1,7,-5,-3,2,2,13,4
1449106185504,2,0,2,32,4,-10,-35,-13,-8,-7,9
1449106185504,2,0,2,53,33,20,95,30,8,11,5
1449106185550,0,0,2,37,17,-3,-17,-8,-2,4,21
1449106185550,3,0,2,-52,-58,-17,-45,-14,-7,1,-1
1449106185550,0,0,2,-1,9,-1,-7,-12,-9,5,1
1449106185550,3,0,2,-21,-4,1,15,2,-2,-12,-17
1449106185551,3,0,2,13,3,-19,-33,-18,-7,15,16
1449106185551,3,0,2,-21,23,16,34,8,-2,-20,-21
1449106185552,0,0,2,-6,14,5,22,8,4,-15,-9
1449106185552,0,0,2,11,44,2,-32,5,3,11,9
1449106185598,1,0,2,-27,-62,-7,45,10,-5,-21,-27
1449106185598,1,0,2,26,20,0,-25,-11,-1,19,21
1449106185599,2,0,2,12,-8,-3,-22,-3,-4,-9,-2
1449106185599,2,0,2,-20,-16,8,5,-3,1,-6,-9
1449106185600,0,0,2,28,1,2,5,-2,-3,-3,1
1449106185600,0,0,2,-49,9,5,-3,-11,-4,-9,-6
1449106185601,1,0,2,11,4,-1,-25,1,7,-1,0
1449106185601,1,0,2,-25,-32,8,29,6,3,4,-5
1449106185647,2,0,2,-23,-38,-9,-6,-8,-8,-8,-2
1449106185647,2,0,2,-4,26,0,-19,1,0,-3,-12
1449106185648,3,0,2,-41,-22,4,3,9,11,46,23
1449106185648,3,0,2,49,14,1,5,-3,-2,-5,10
1449106185648,0,0,2,25,20,20,42,12,2,-10,-12
1449106185648,0,0,2,-39,-48,-20,-59,-15,-10,-38,-24
1449106185650,1,0,2,26,11,-7,-11,-11,-3,-1,7
1449106185650,1,0,2,-27,-4,13,30,8,5,15,23
1449106185696,2,0,2,2,31,12,46,26,15,12,-7
1449106185696,2,0,2,-4,-34,-15,-14,-8,-10,-1,-2
1449106185697,1,0,2,-22,-34,1,9,-6,-1,-4,-20
1449106185697,3,0,2,-2,7,21,43,1,4,2,7
1449106185697,3,0,2,24,5,-4,-48,-15,-4,-3,2
1449106185697,1,0,2,0,12,-11,-79,-9,-5,5,6
1449106185699,2,0,2,-9,-5,12,78,4,-8,-7,-1
1449106185699,2,0,2,-1,-5,6,-14,-9,-2,-3,-19
1449106185745,3,0,2,-25,-21,-18,-17,10,-1,-41,-14
1449106185745,0,0,2,-2,16,-6,-2,7,3,1,5
1449106185745,3,0,2,27,13,2,-18,-3,4,29,14
1449106185745,0,0,2,21,3,-8,-39,-9,2,11,6
1449106185746,2,0,2,6,-21,-7,-5,-19,-9,-3,2
1449106185746,2,0,2,6,-6,-7,-3,1,0,-1,7
1449106185747,3,0,2,1,-11,-11,-23,-13,-4,9,0
1449106185747,3,0,2,46,39,-3,19,8,5,-13,-6
1449106185793,0,0,2,-46,-16,0,-20,-15,-9,9,4
1449106185793,0,0,2,-9,2,7,17,9,-3,-24,-24
1449106185794,1,0,2,-11,3,-8,-4,19,12,-10,-1
1449106185794,1,0,2,19,12,-4,-4,-11,-5,16,19
1449106185795,3,0,2,-7,-70,-21,-8,-19,-21,-30,-17
1449106185795,3,0,2,41,49,4,-26,-17,-9,-9,-7
1449106185796,0,0,2,-15,3,12,-45,-5,13,25,2
1449106185796,0,0,2,-33,-31,-14,46,14,-7,-37,-17
1449106185842,1,0,2,17,14,8,7,8,6,9,4
1449106185842,1,0,2,14,23,5,3,-12,-9,-1,-1
1449106185843,0,0,2,31,15,19,12,-2,6,29,34
1449106185843,2,0,2,-17,-7,-9,-28,5,10,28,19
1449106185843,2,0,2,25,-1,-2,-6,-1,-12,-30,-15
1449106185843,0,0,2,3,29,-15,-21,-6,0,-7,-13
1449106185845,1,0,2,22,19,10,26,10,3,11,13
1449106185845,1,0,2,-13,-14,-5,1,3,0,-16,-17
1449106185891,2,0,2,14,10,-2,-1,2,4,11,9
1449106185891,2,0,2,-16,7,18,40,3,-5,1,-1
1449106185892,1,0,2,24,3,-19,3,-7,-1,30,17
1449106185892,3,0,2,4,16,11,34,0,0,0,-5
1449106185892,1,0,2,16,22,9,-9,4,9,5,7
1449106185892,3,0,2,-8,-3,-5,9,-5,-3,-19,-8
1449106185894,2,0,2,-8,-8,5,-14,-12,-6,-20,-3
1449106185894,2,0,2,8,5,0,9,-1,-12,-18,-15
1449106185940,0,0,2,-16,6,-25,-50,-15,-5,10,-3
1449106185940,3,0,2,34,27,7,-1,8,1,-15,-6
1449106185940,3,0,2,-15,-12,-3,-4,5,3,32,11
1449106185940,0,0,2,-58,-25,7,-6,-6,-7,-38,-30
1449106185941,2,0,2,32,7,-17,-44,-10,2,13,20
1449106185941,2,0,2,5,33,23,3,-12,-5,-6,-2
1449106185942,3,0,2,25,4,-14,-4,4,3,-7,-10
1449106185942,3,0,2,-9,-21,-6,-21,-5,-6,3,0
1449106185989,0,0,2,34,21,4,15,5,0,-10,1
1449106185989,1,0,2,13,15,-10,-21,-6,-2,-7,-9
1449106185989,0,0,2,38,15,2,-17,-17,1,15,17
1449106185989,1,0,2,-31,17,13,20,10,4,30,34
1449106185990,3,0,2,1,18,-6,-8,-2,6,-3,2
1449106185990,3,0,2,-28,-15,5,1,10,-2,-9,-10
1449106185992,0,0,2,5,-2,-4,4,10,7,13,7
1449106185992,0,0,2,-10,-3,5,44,7,-4,9,9
1449106186038,1,0,2,-43,3,-4,-65,-23,-4,10,-16
1449106186038,1,0,2,-13,-27,-4,2,-7,-5,-5,4
1449106186086,2,0,2,-18,5,9,29,12,2,3,10
1449106186086,2,0,2,18,7,1,11,10,5,-16,-20
1449106186087,0,0,2,-26,-14,-5,-1,-1,-8,-17,-25
1449106186087,3,0,2,-37,-7,-4,-38,-16,-8,-17,-12
1449106186087,3,0,2,26,-25,-8,-9,-5,9,25,22
1449106186087,0,0,2,28,25,-2,-6,-7,-3,5,6
1449106186089,1,0,2,24,2,-6,-10,9,2,4,17
1449106186089,1,0,2,-5,19,3,-19,-17,-8,-19,-1
1449106186135,0,0,2,-33,-15,-4,-26,-7,1,-11,-4
1449106186135,2,0,2,9,-20,1,14,8,2,-1,4
1449106186135,0,0,2,16,2,-2,-6,-4,-3,3,10
1449106186135,2,0,2,15,7,9,14,6,7,-1,-4
1449106186136,1,0,2,6,16,4,9,14,1,1,0
1449106186136,1,0,2,-14,-3,-9,-60,-21,-7,-12,-18
1449106186137,1,0,2,2,2,7,22,9,-2,-24,-20
1449106186137,1,0,2,-10,-18,1,21,-8,-4,2,7
1449106186233,2,0,3,-9,13,3,-21,-9,4,11,11
1449106186233,2,0,3,13,-20,-6,8,-5,-3,6,-1
1449106186234,3,0,3,2,-4,-2,1,-4,4,-3,0
1449106186234,2,0,3,-2,1,4,-39,-19,-6,20,11
1449106186234,2,0,3,8,12,-4,32,24,6,3,12
1449106186234,3,0,3,-12,-7,-12,25,10,-7,-2,-12
1449106186235,3,0,3,-51,-10,-1,-16,-17,-13,-12,-10
1449106186235,3,0,3,20,-7,3,52,27,5,-30,-22
1449106186281,0,0,3,-6,-3,-10,-63,-15,0,3,2
1449106186281,0,0,3,16,15,4,24,9,-5,-5,-4
1449106186282,3,0,3,2,5,-3,-14,-9,-1,5,8
1449106186282,1,0,3,3,5,3,-21,1,6,10,16
1449106186282,1,0,3,8,-13,-11,-5,2,1,16,11
1449106186282,3,0,3,-3,8,-2,2,3,2,2,-5
1449106186284,0,0,3,12,22,11,-16,1,5,15,7
1449106186284,0,0,3,-35,-51,0,22,9,3,-2,-5
1449106186330,1,0,3,-12,2,-1,17,1,-13,-28,-18
1449106186330,1,0,3,-4,1,-1,-18,-9,3,25,13
1449106186331,2,0,3,26,9,1,-8,3,6,-6,-2
1449106186331,1,0,3,12,-21,-6,0,-1,-5,-3,5
1449106186331,2,0,3,-29,-15,-1,-13,-3,-2,-4,-10
1449106186331,1,0,3,-8,-8,-16,-30,-2,-2,-11,-10
1449106186332,2,0,3,-8,11,-4,15,6,9,48,29
1449106186332,2,0,3,13,7,8,12,3,0,6,0
1449106186379,3,0,3,2,5,2,-16,-15,-13,-47,-36
1449106186379,0,0,3,-15,-8,4,29,17,6,-4,1
1449106186379,0,0,3,2,-31,-25,-26,-14,-8,-4,-5
1449106186379,3,0,3,15,6,15,40,16,0,-14,-5
1449106186380,1,0,3,4,17,3,-21,-3,3,10,5
1449106186380,1,0,3,-42,-33,-2,25,10,2,7,1
1449106186381,2,0,3,26,8,-8,-33,-18,-10,-13,-5
1449106186381,2,0,3,-23,-11,0,14,8,-1,-6,-1
1449106186427,3,0,3,-11,-2,-5,-23,-3,3,8,2
1449106186427,3,0,3,29,10,3,42,10,4,6,5
1449106186428,0,0,3,3,12,6,22,-3,-5,-4,5
1449106186428,0,0,3,-12,-25,1,10,-1,7,1,7
1449106186429,2,0,3,32,15,1,8,4,6,18,11
1449106186429,2,0,3,-16,8,2,-8,-1,-5,-17,-9
1449106186430,3,0,3,-19,-21,-11,-30,-7,-3,2,4
1449106186430,3,0,3,23,8,2,63,17,5,6,9
1449106186476,0,0,3,28,7,-1,-26,-11,-3,6,9
1449106186476,0,0,3,-12,3,1,-1,-9,-6,-11,-14
1449106186477,3,0,3,25,19,7,54,20,9,11,6
1449106186477,1,0,3,16,26,-1,-40,-11,-4,-2,11
1449106186477,3,0,3,12,11,5,-36,-22,-4,12,19
1449106186477,1,0,3,-4,-15,-2,23,22,12,15,-21
1449106186479,0,0,3,-8,-6,-7,9,2,0,-14,-11
1449106186479,0,0,3,-3,9,12,-15,4,3,-5,-6
1449106186525,1,0,3,3,-4,-20,-10,-8,0,5,9
1449106186525,1,0,3,-30,-36,-11,-30,-8,-3,-3,-4
1449106186526,2,0,3,-6,3,13,8,3,3,-5,-3
1449106186526,2,0,3,-5,-3,-7,-17,-9,-10,4,-3
1449106186528,0,0,3,-12,-2,5,-6,-9,-4,-12,-11
1449106186528,0,0,3,-2,-1,-8,-47,-11,-2,15,7
1449106186529,1,0,3,4,13,8,-11,-10,5,-9,-7
1449106186529,1,0,3,-2,-15,1,24,8,0,-14,4
1449106186574,2,0,3,27,-4,-11,0,11,6,16,8
1449106186574,2,0,3,-2,11,15,18,1,-1,6,16
1449106186575,1,0,3,11,14,6,-37,-5,-2,16,17
1449106186575,1,0,3,-20,-14,-8,-1,9,3,3,-13
1449106186575,3,0,3,8,9,3,-9,-10,0,-5,10
1449106186575,3,0,3,2,18,1,-35,-6,0,1,-1
1449106186576,2,0,3,-15,13,-2,-5,-10,-7,-24,-17
1449106186576,2,0,3,21,-2,-7,36,12,1,-9,-10
1449106186623,0,0,3,-8,-20,-11,-4,2,-3,-4,-6
1449106186623,0,0,3,7,-12,-17,12,5,3,16,17
1449106186623,3,0,3,-15,-27,-7,-13,-12,-5,-4,2
1449106186623,3,0,3,1,11,7,-20,3,3,-1,-7
1449106186627,2,0,3,13,0,-2,0,-5,-9,-20,-6
1449106186627,2,0,3,-6,5,6,11,5,3,-6,1
1449106186671,3,0,3,-7,17,1,-9,-2,0,0,2
1449106186671,3,0,3,3,-8,3,-16,-12,-11,7,-3
1449106186672,0,0,3,16,20,4,25,6,7,-6,5
1449106186672,0,0,3,-35,-14,-9,7,5,-3,-5,-6
1449106186673,1,0,3,4,11,5,1,0,-1,-27,-20
1449106186673,1,0,3,27,2,1,5,-4,-1,12,13
1449106186674,3,0,3,-7,-5,-9,21,8,3,3,1
1449106186674,3,0,3,-20,-2,9,23,-2,-4,8,2
1449106186720,0,0,3,14,12,-3,-20,-12,-2,2,8
1449106186720,1,0,3,5,-9,-2,-2,-1,-1,12,10
1449106186720,1,0,3,-9,-12,-3,-4,-1,-3,-8,-14
1449106186720,0,0,3,-5,-18,-4,-20,-6,-4,0,-5
1449106186721,3,0,3,9,24,18,20,-1,10,29,21
1449106186721,3,0,3,-15,-29,-13,-23,-9,-1,-10,-12
1449106186722,0,0,3,-11,-31,8,27,4,-6,-8,-8
1449106186722,0,0,3,-1,9,-16,0,14,5,1,-6
1449106186768,1,0,3,2,17,-4,1,2,1,0,-12
1449106186768,1,0,3,-16,-16,-1,28,12,-3,-27,-12
1449106186769,2,0,3,45,43,-1,0,4,12,19,14
1449106186769,2,0,3,-5,-1,1,-25,-15,-6,14,12
1449106186770,0,0,3,5,-4,4,4,-1,-5,-11,-9
1449106186770,0,0,3,-24,-5,17,34,19,12,19,12
1449106186771,1,0,3,73,22,-10,24,16,4,9,13
1449106186771,1,0,3,-28,1,2,-19,-10,-2,6,5
1449106186817,2,0,3,10,-7,11,-8,-8,-3,-4,-7
1449106186817,2,0,3,-41,-34,-15,1,-1,0,1,-4
1449106186818,3,0,3,12,9,1,1,4,4,4,2
1449106186818,1,0,3,-7,-23,-6,-17,-9,-5,-1,-5
1449106186818,1,0,3,-14,-10,-1,7,0,1,2,1
1449106186818,3,0,3,-8,2,0,7,1,-5,-11,-6
1449106186820,2,0,3,12,6,-4,-14,-3,0,-3,6
1449106186820,2,0,3,-19,-12,4,0,2,2,-4,-4
1449106186866,3,0,3,22,17,6,10,10,6,5,2
1449106186866,3,0,3,-30,4,-1,3,-5,-2,-6,-11
1449106186867,0,0,3,14,-17,-12,-5,-7,-6,-4,1
1449106186867,2,0,3,-16,5,-1,-26,-8,-5,-5,-5
1449106186867,2,0,3,-17,-2,1,17,2,-5,-6,-11
1449106186867,0,0,3,-10,-4,-1,-16,1,3,10,0
1449106186915,3,0,3,56,30,-6,-27,-11,-2,0,-1
1449106186915,0,0,3,8,10,5,-2,-2,-4,-1,3
1449106186915,0,0,3,4,4,-1,-4,-4,0,1,1
1449106186915,3,0,3,-76,-57,-8,18,1,-3,-8,-12
1449106186916,1,0,3,-12,-4,-5,-10,-6,-9,-11,-4
1449106186916,1,0,3,17,16,6,-11,-3,3,2,-12
1449106186917,3,0,3,6,-2,-21,-2,-6,-18,-29,1
1449106186917,3,0,3,4,8,64,13,16,13,22,24
1449106186963,0,0,3,-59,-13,-30,-1,1,20,2,-61
1449106186963,0,0,3,53,32,-8,-14,16,63,7,17
1449106186964,1,0,3,-38,-27,36,36,10,-10,3,-4
1449106186964,1,0,3,-5,-31,-50,-56,-26,2,-6,7
1449106186965,0,0,3,-12,-17,6,-11,-8,-4,-44,-19
1449106186965,0,0,3,-19,-6,-40,6,8,-18,-41,3
1449106186966,1,0,3,-9,18,29,13,8,33,24,93
1449106186966,1,0,3,24,-26,1,30,0,-41,-14,-34
1449106187012,2,0,3,15,-26,-106,-15,-2,7,15,65
1449106187012,2,0,3,-41,5,113,14,2,28,-5,-82
1449106187013,3,0,3,14,-25,-21,-45,-17,-31,-29,-5
1449106187013,3,0,3,-11,-18,-83,-15,-17,-51,-26,-20
1449106187014,1,0,3,-15,18,19,-11,-5,6,9,21
1449106187014,1,0,3,13,-28,38,19,5,4,-5,-11
1449106187015,2,0,3,11,12,18,45,15,24,23,32
1449106187015,2,0,3,8,9,-54,-49,-6,-12,0,-22
1449106187061,3,0,3,6,19,9,22,11,25,18,29
1449106187061,3,0,3,6,1,-8,-19,-4,14,0,-10
1449106187062,0,0,3,-4,-2,36,28,-12,-15,2,-7
1449106187062,1,0,3,-5,5,52,20,-5,14,-1,-2
1449106187062,0,0,3,19,7,11,10,24,-5,8,26
1449106187062,1,0,3,8,11,-16,-3,23,6,-7,-7
1449106187064,2,0,3,6,-4,-8,-10,-7,-12,14,21
1449106187064,2,0,3,-10,2,12,-1,-3,0,0,-17
1449106187110,3,0,3,15,11,0,11,1,-6,-3,0
1449106187110,3,0,3,-10,2,6,6,8,20,1,-4
1449106187111,0,0,3,-10,-17,1,-21,-5,-2,-7,-17
1449106187111,2,0,3,3,23,35,22,-4,2,5,-6
1449106187111,0,0,3,13,34,-21,0,-3,2,14,22
1449106187111,2,0,3,-6,-29,-37,-36,-9,-10,-6,-1
1449106187112,3,0,3,13,8,23,-3,0,3,-3,22
1449106187112,3,0,3,-13,-28,-82,-15,4,7,13,5
1449106187159,1,0,3,2,-2,23,-6,-9,-4,10,-13
1449106187159,0,0,3,2,2,9,31,3,-21,-25,-20
1449106187159,0,0,3,-4,-6,4,-19,-9,5,11,-9
1449106187159,1,0,3,-9,-11,-59,-28,-6,-4,-22,-3
1449106187160,3,0,3,-12,-3,-11,-4,3,-1,-11,-34
1449106187160,3,0,3,-7,-10,-36,-4,-5,-23,-21,-15
1449106187161,0,0,3,-4,-5,6,2,-1,-12,-5,-2
1449106187161,0,0,3,-1,1,-12,1,0,1,5,-11
1449106187208,1,0,3,5,20,8,-24,-1,4,7,23
1449106187208,1,0,3,-3,-2,36,15,-8,-4,-3,-9
1449106187208,2,0,3,-2,-4,9,16,14,13,10,8
1449106187208,2,0,3,1,-8,-14,-19,5,-4,2,1
1449106187209,0,0,3,-3,-10,-7,-6,-8,-12,-12,-12
1449106187209,0,0,3,-1,-4,-6,-4,-6,-7,-2,-1
1449106187210,1,0,3,-2,5,11,8,2,6,4,4
1449106187210,1,0,3,0,-7,-22,5,4,2,2,-8
1449106187256,2,0,3,6,7,-10,-9,-3,-3,-6,6
1449106187256,2,0,3,-4,4,8,6,2,-1,-2,-6
1449106187257,3,0,3,2,-11,-3,-4,-1,8,15,9
1449106187257,3,0,3,-2,8,15,14,7,2,2,-6
1449106187258,1,0,3,3,6,14,6,-2,6,12,2
1449106187258,1,0,3,-1,-9,-32,-12,2,-4,-18,-1
1449106187259,2,0,3,-2,3,5,2,0,4,5,-11
1449106187259,2,0,3,-4,1,-15,-9,-10,-6,-3,-4
1449106187305,3,0,3,0,-1,49,13,4,-7,-9,11
1449106187305,3,0,3,-4,-2,-10,-7,-4,5,9,-4
1449106187306,2,0,3,-4,-15,-25,-19,-9,-6,-3,-4
1449106187306,2,0,3,-11,-6,47,1,-6,-4,-5,-2
1449106187306,0,0,3,6,13,32,8,1,5,-1,0
1449106187306,0,0,3,-1,-6,-19,-5,1,2,4,2
1449106187307,3,0,3,1,3,-26,-8,-7,0,1,2
1449106187307,3,0,3,-4,-13,-11,0,-3,-1,4,-1
1449106187354,1,0,3,-3,6,3,-7,-2,0,0,0
1449106187354,0,0,3,-2,-5,17,6,3,-4,-7,-7
1449106187354,1,0,3,-1,-2,-2,4,-1,-5,-10,-6
1449106187354,0,0,3,2,-2,-11,2,-1,-1,3,5
1449106187355,3,0,3,0,2,7,2,2,-2,0,3
1449106187355,3,0,3,0,0,-3,1,3,8,1,-1
1449106187356,0,0,3,0,-2,-25,-6,-3,-2,-4,-6
1449106187356,0,0,3,-1,0,-1,4,-1,0,4,0
1449106187402,1,0,3,1,1,25,21,6,4,5,-3
1449106187402,1,0,3,-2,4,3,-2,-3,-8,-4,8
1449106187403,2,0,3,-1,-4,-37,-25,-3,1,1,0
1449106187403,2,0,3,2,1,-1,-3,-2,3,2,2
1449106187404,0,0,3,-1,0,-14,-8,-2,0,-1,-1
1449106187404,0,0,3,-1,-5,-25,-5,-2,-3,-2,0
1449106187405,1,0,3,3,21,1,2,-1,-5,0,-5
1449106187405,1,0,3,2,10,-11,-1,2,1,4,1
1449106187451,2,0,3,-4,-6,-6,1,1,-9,-13,-9
1449106187451,2,0,3,-3,-21,6,9,-5,3,5,0
1449106187452,3,0,3,9,1,0,3,7,11,6,14
1449106187452,3,0,3,5,5,1,-9,-6,-4,-3,-1
1449106187452,0,0,3,-15,9,1,-2,-3,-5,-5,-6
1449106187452,0,0,3,-3,2,24,3,-2,1,2,-1
1449106187454,1,0,3,-2,-4,-8,-5,-1,4,2,-15
1449106187454,1,0,3,-5,-13,-10,-13,-5,-9,-10,7
1449106187500,2,0,3,4,2,1,8,2,0,-1,0
1449106187500,2,0,3,-1,0,22,-3,-4,-2,0,2
1449106187549,3,0,3,0,-5,-16,-1,1,-1,0,0
1449106187549,1,0,3,-5,-5,-15,-11,-1,-3,-6,0
1449106187549,3,0,3,-10,-18,-4,-2,-6,-4,-4,-13
1449106187549,1,0,3,3,-5,-8,3,0,8,12,2
1449106187550,2,0,3,-1,-4,-10,-4,-5,-1,2,-3
1449106187550,2,0,3,3,11,34,10,-3,-7,-5,2
1449106187551,3,0,3,4,-4,-11,-3,4,-3,-5,5
1449106187551,3,0,3,-1,2,17,7,8,9,6,-2
1449106187597,0,0,3,-12,-2,14,-3,-8,-5,-9,-14
1449106187597,0,0,3,5,-1,1,2,-5,-10,-5,-2
1449106187598,2,0,3,-14,-28,-23,-9,-3,-4,-1,-3
1449106187598,2,0,3,8,26,1,1,1,3,3,5
1449106187599,3,0,3,-3,-2,5,6,1,-7,-7,-3
1449106187599,3,0,3,-1,5,-13,-11,-3,0,3,0
1449106187600,3,0,3,-2,0,-9,-8,-5,-4,-5,-3
1449106187600,3,0,3,0,-2,8,4,-7,-4,-5,-7
1449106187646,0,0,3,-3,-6,-18,-15,0,9,4,1
1449106187646,0,0,3,3,2,12,11,5,5,2,2
1449106187647,0,0,3,-1,-3,-4,1,0,4,9,-5
1449106187647,1,0,3,-3,-2,-2,-10,-5,-12,-15,-6
1449106187647,0,0,3,0,2,-2,-5,-1,-4,-5,-8
1449106187647,1,0,3,1,3,-3,0,-3,-1,1,3
1449106187649,1,0,3,2,0,2,7,-1,-1,-3,11
1449106187649,1,0,3,0,5,-11,-6,-10,-4,0,-6
1449106187695,2,0,3,-8,-11,4,2,4,-1,-3,-1
1449106187695,2,0,3,1,0,2,-4,0,1,5,5
1449106187696,3,0,3,-9,14,17,3,4,5,4,-3
1449106187696,1,0,3,0,-4,-6,6,7,4,3,-2
1449106187696,1,0,3,-2,-6,-12,-8,-3,-6,-5,3
1449106187696,3,0,3,2,-6,6,-5,-7,-7,-6,-4
1449106187697,2,0,3,0,0,-2,-1,5,5,2,0
1449106187697,2,0,3,2,0,10,4,-3,-4,-5,2
1449106187744,3,0,3,1,4,-12,0,-4,-2,-3,0
1449106187744,3,0,3,2,-5,7,-2,2,1,6,2
1449106187745,2,0,3,-4,6,-1,-4,-2,-5,-6,-14
1449106187745,2,0,3,6,0,0,4,0,0,0,17
1449106187745,0,0,3,2,-2,-5,-5,-5,5,12,7
1449106187745,0,0,3,-4,4,11,6,-5,-4,-13,-6
1449106187746,3,0,3,-7,3,19,2,-4,-3,-1,-13
1449106187746,3,0,3,12,9,-38,-5,-2,4,3,6
1449106187793,0,0,3,-5,-2,-13,3,-1,2,-2,-6
1449106187793,0,0,3,-8,-33,1,-5,3,-1,-2,-7
1449106187794,2,0,3,0,-1,1,1,-2,-3,-4,-4
1449106187794,2,0,3,6,10,-9,-10,-6,-1,3,8
1449106187794,1,0,3,-1,1,-5,3,-2,-5,-3,-1
1449106187794,1,0,3,1,4,9,-3,-3,-5,-5,-3
1449106187795,3,0,3,-5,-7,-18,-9,-3,-3,-2,-3
1449106187795,3,0,3,2,-2,10,5,8,5,2,5
1449106187841,0,0,3,0,4,-7,-5,2,2,1,2
1449106187841,0,0,3,-2,-2,10,2,-2,-5,-4,-4
1449106187842,3,0,3,-1,-2,-5,-1,-4,1,1,-1
1449106187842,1,0,3,-5,-4,7,6,0,3,-3,-2
1449106187842,3,0,3,-5,-6,9,0,-1,-2,-4,-2
1449106187842,1,0,3,-3,1,-3,-7,-6,2,1,-1
1449106187844,0,0,3,-1,1,-6,-4,-5,-3,2,2
1449106187844,0,0,3,-2,2,-2,1,3,1,0,-3
1449106187890,1,0,3,-1,0,5,0,0,1,-2,0
1449106187890,2,0,3,-3,-3,-17,-10,-2,-5,-6,-4
1449106187890,1,0,3,2,-1,13,-1,-5,-4,-1,0
1449106187890,2,0,3,3,5,27,15,0,0,8,5
1449106187891,0,0,3,-1,-2,11,3,1,1,1,0
1449106187891,0,0,3,-2,1,-6,-5,-5,-3,-2,0
1449106187892,1,0,3,-2,-6,6,3,0,2,0,-4
1449106187892,1,0,3,-2,0,2,2,1,0,1,-1
1449106187938,2,0,3,1,0,-7,-5,0,2,0,2
1449106187938,2,0,3,-2,1,6,-4,-1,-3,-4,-3
1449106187939,3,0,3,3,-3,-16,-5,-2,-1,1,-1
1449106187939,3,0,3,-2,-2,-2,-1,-6,-4,0,0
1449106187940,1,0,3,-7,-6,-14,-4,-3,-5,-1,-5
1449106187940,1,0,3,1,-1,11,6,2,3,1,0
1449106187941,2,0,3,0,1,-2,5,4,6,0,-3
1449106187941,2,0,3,0,3,7,-2,-3,-4,-5,-2
1449106187987,3,0,3,-3,-3,1,1,-3,-1,-1,-2
1449106187987,3,0,3,2,2,5,6,1,-3,0,-3
1449106187988,0,0,3,2,2,-3,-3,-1,2,1,1
1449106187988,0,0,3,0,-1,-9,-3,2,-3,-1,4
1449106187989,2,0,3,-4,-8,7,0,-6,-4,-1,-2
1449106187989,2,0,3,-1,-3,-7,2,7,7,3,1
1449106187990,3,0,3,1,2,-4,-5,-7,-7,-2,4
1449106187990,3,0,3,-3,-1,10,3,4,2,0,1
1449106188036,0,0,3,1,4,2,-2,-1,-2,0,0
1449106188036,0,0,3,-6,-30,-20,-7,-5,-2,-3,-1
1449106188037,1,0,3,-2,-4,-13,-9,-4,-1,0,-2
1449106188037,3,0,3,-1,1,3,4,4,1,0,1
1449106188037,3,0,3,-2,-2,0,2,3,2,1,0
1449106188037,1,0,3,2,0,11,6,4,3,2,1
1449106188039,0,0,3,1,2,8,6,-1,-3,2,0
1449106188039,0,0,3,0,1,-9,-6,-5,-1,0,0
1449106188085,2,0,3,-1,3,5,3,3,-2,4,0
1449106188085,1,0,3,-1,4,3,-5,-8,-4,-1,-2
1449106188085,2,0,3,1,-7,-2,1,1,3,-2,-3
1449106188085,1,0,3,1,-3,0,-1,0,1,-1,-1
1449106188086,0,0,3,2,8,-6,-7,-6,-3,-2,-1
1449106188086,0,0,3,1,3,5,5,3,3,-1,1
1449106188087,1,0,3,-4,-18,2,4,2,1,-1,-2
1449106188087,1,0,3,0,0,-4,-2,0,-2,-3,-4
1449106188133,2,0,3,-4,5,-2,-3,-3,-1,-1,-2
1449106188133,2,0,3,2,1,6,2,0,-1,-3,0
1449106188134,3,0,3,1,1,-16,-12,-4,3,2,3
1449106188134,3,0,3,-3,-2,1,3,2,0,-2,-4
1449106188135,0,0,3,2,3,1,0,-4,0,0,1
1449106188135,0,0,3,-2,-1,0,-1,2,-2,2,-1
1449106188136,1,0,3,1,-2,-4,-7,-4,-2,-1,0
1449106188136,1,0,3,0,-2,-2,1,-1,-3,-3,0
1449106188182,2,0,3,-2,-5,-13,-7,-4,-3,0,-1
1449106188182,2,0,3,0,-1,1,2,3,0,-3,-1
1449106188183,3,0,3,0,1,6,5,3,-1,0,0
1449106188183,3,0,3,0,4,14,2,1,0,-1,-3
1449106188184,1,0,3,-2,-6,-4,-7,-5,-5,-2,-2
1449106188184,1,0,3,-3,2,-1,0,-2,-1,0,-1
1449106188185,2,0,3,-1,-5,-5,-4,-4,1,-1,-2
1449106188185,2,0,3,0,0,2,2,0,-2,-1,1
1449106188231,3,0,3,-1,3,12,5,-3,-1,-1,-3
1449106188231,3,0,3,0,-2,-8,-3,1,-3,-4,0
1449106188280,0,0,3,-1,-2,-8,-3,0,0,0,0
1449106188280,0,0,3,-3,0,-9,-7,-4,-3,-4,-1
1449106188281,2,0,3,-6,-16,4,4,1,1,-1,-2
1449106188281,3,0,3,2,-8,-7,0,5,1,-1,-1
1449106188281,2,0,3,0,4,8,4,-2,-1,-1,-1
1449106188281,3,0,3,-1,-1,-4,-4,0,-1,1,-2
1449106188282,0,0,3,-5,-7,2,-3,1,0,0,-4
1449106188282,0,0,3,0,6,8,0,-1,-1,1,-1
1449106188329,1,0,3,1,1,-1,-3,-4,-3,0,3
1449106188329,1,0,3,-1,-3,-7,-1,-2,-1,0,-1
1449106188330,0,0,3,0,1,2,-2,-3,-2,-4,-3
1449106188330,3,0,3,0,-2,1,3,1,1,1,1
1449106188330,0,0,3,-2,-2,-3,-4,-4,-4,-2,0
1449106188330,3,0,3,1,3,9,-1,-2,0,-1,1
1449106188331,0,0,3,-2,-2,-3,-1,1,2,0,-3
1449106188331,0,0,3,-5,-12,3,-1,-2,0,-3,-2
1449106188377,1,0,3,-2,-1,-2,1,1,0,-3,0
1449106188377,1,0,3,-2,0,2,0,-6,-4,-2,-2
1449106188378,2,0,3,-2,-9,3,-1,-1,1,-1,-1
1449106188378,2,0,3,2,8,-10,-5,-3,-3,-2,1
1449106188379,1,0,3,-2,-4,-1,3,3,1,0,-2
1449106188379,1,0,3,-2,-1,-5,-8,-4,-1,-2,-2
1449106188380,2,0,3,1,7,6,5,2,0,0,0
1449106188380,2,0,3,-2,1,1,2,1,0,0,-2
1449106188426,3,0,3,-2,-3,-5,-5,-5,-2,0,1
1449106188426,3,0,3,0,-1,3,-1,-2,-2,-1,0
1449106188427,0,0,3,-2,-11,-8,-3,-3,-1,2,-2
1449106188427,2,0,3,0,4,8,8,9,1,-2,-1
1449106188427,2,0,3,-2,-3,-12,-12,-8,-3,1,1
1449106188427,0,0,3,3,6,1,0,0,2,-2,-1
1449106188429,3,0,3,3,4,-1,-3,-3,-4,0,2
1449106188429,3,0,3,-3,-6,-6,-4,-4,-5,-1,-2
1449106188475,1,0,3,-4,-16,-4,-1,-1,-2,-2,0
1449106188475,0,0,3,0,11,1,1,1,1,-3,-3
1449106188475,0,0,3,-4,-9,4,3,1,0,-2,-1
1449106188475,1,0,3,7,18,1,1,-2,0,4,6
1449106188476,2,0,3,0,-5,5,1,-4,-3,-1,-2
1449106188476,2,0,3,2,5,5,-3,3,-1,-4,1
1449106188477,3,0,3,-1,1,5,3,3,-1,-2,-5
1449106188477,3,0,3,-4,-3,-20,-13,-8,-2,-1,-3
1449106188523,0,0,3,4,11,5,6,3,-1,0,1
1449106188523,0,0,3,0,-3,-10,-2,2,5,5,8
1449106188524,1,0,3,-6,-16,-14,-4,-4,-5,-4,-7
1449106188524,1,0,3,-1,1,10,4,0,0,0,1
1449106188525,3,0,3,-3,1,6,4,3,2,1,-3
1449106188525,3,0,3,0,-2,1,-2,-4,2,-1,0
1449106188526,0,0,3,1,0,-1,-2,-3,-6,-2,-1
1449106188526,0,0,3,-4,-1,-2,2,3,4,0,-3
1449106188572,1,0,3,-2,-2,1,2,1,0,-3,-2
1449106188572,1,0,3,0,8,-4,0,-3,-1,2,2
1449106188573,2,0,3,-8,-22,-2,-6,-5,-2,-7,-7
1449106188573,2,0,3,4,7,-2,-3,-1,-4,2,4
1449106188574,0,0,3,-1,5,-18,-13,-11,-5,-1,-3
1449106188574,0,0,3,-3,-1,6,3,5,1,-2,-5
1449106188575,1,0,3,2,-9,0,5,6,5,6,4
1449106188575,1,0,3,-2,-2,6,3,-1,-2,-2,-2
1449106188621,2,0,3,-2,-2,-13,-5,-2,-1,-1,-3
1449106188621,2,0,3,-6,-8,-4,-8,-5,-2,-3,0
1449106188622,1,0,3,0,-1,2,-2,-3,-1,-1,3
1449106188622,1,0,3,-3,-4,-12,-3,-1,-5,-7,-4
1449106188622,3,0,3,5,3,-1,-4,-4,-4,1,7
1449106188622,3,0,3,-1,2,2,-1,0,0,0,-9
1449106188624,2,0,3,1,6,8,8,3,3,4,-2
1449106188624,2,0,3,1,2,0,2,2,-2,0,-2
1449106188670,0,0,3,-1,1,6,5,3,2,0,2
1449106188670,3,0,3,-3,-1,3,-3,-6,-2,-1,-3
1449106188670,0,0,3,-2,-2,-2,-7,-7,-8,-5,-2
1449106188670,3,0,3,1,-3,-7,-3,-2,0,-1,2
1449106188671,2,0,3,2,-1,-3,5,1,-1,-2,7
1449106188671,2,0,3,-1,1,3,1,1,0,4,-5
1449106188674,3,0,3,1,2,2,-2,2,0,-1,0
1449106188674,3,0,3,-2,1,2,0,-3,-2,-2,-4
1449106188719,0,0,3,1,-1,-5,-5,-6,-3,-1,1
1449106188719,1,0,3,1,2,-3,-2,0,-2,-2,-1
1449106188719,1,0,3,1,3,1,-1,4,1,0,4
1449106188719,0,0,3,-3,5,3,1,-1,0,0,-2
1449106188720,3,0,3,1,2,6,1,-6,-3,-2,-3
1449106188720,3,0,3,5,2,-9,-1,-3,-4,-2,4
1449106188721,0,0,3,-2,-2,0,-2,-2,2,-2,-5
1449106188721,0,0,3,1,2,-2,3,2,0,0,8
1449106188767,1,0,3,-1,-2,-7,-5,-2,0,-1,-2
1449106188767,1,0,3,-5,-11,-2,1,1,0,-2,-5
1449106188768,2,0,3,2,3,-2,2,-2,-3,-2,4
1449106188768,2,0,3,2,0,8,3,3,-1,2,-2
1449106188769,0,0,3,-7,-16,-9,-4,-2,-3,-2,-9
1449106188769,0,0,3,5,14,20,3,-1,-2,-1,3
1449106188770,1,0,3,0,1,-2,-5,-2,0,-1,6
1449106188770,1,0,3,-1,0,14,5,-1,3,-2,-4
1449106188816,2,0,3,1,6,-9,-3,1,0,0,1
1449106188816,2,0,3,-5,-10,-18,-14,-4,1,0,-6
1449106188817,3,0,3,-2,0,3,5,3,2,-1,-2
1449106188817,1,0,3,-5,-14,-11,4,7,4,5,-2
1449106188817,3,0,3,-2,-2,1,-2,1,0,-2,-2
1449106188817,1,0,3,-3,1,2,-4,0,0,1,0
1449106188819,2,0,3,3,12,8,2,1,-2,-2,2
1449106188819,2,0,3,1,-10,-2,1,-2,0,2,3
1449106188871,0,0,3,-3,-7,-7,-3,-4,-3,-4,-2
1449106188871,3,0,3,1,6,2,-5,-5,-2,-2,-2
1449106188871,0,0,3,-1,3,4,4,0,1,-2,-3
1449106188871,3,0,3,2,-1,0,0,3,1,1,0
1449106188872,2,0,3,-3,1,-11,-8,-3,-2,2,-1
1449106188872,2,0,3,2,3,8,-1,-6,-4,-2,3
1449106188872,1,0,3,2,-4,-4,-1,-4,0,-1,5
1449106188872,1,0,3,-2,2,4,-1,-1,-3,-2,1
1449106188914,3,0,3,-1,4,25,18,8,5,3,-6
1449106188914,3,0,3,0,-1,-26,-9,6,1,-2,-3
1449106188915,0,0,3,5,-2,-17,-7,-3,-2,-2,6
1449106188915,2,0,3,0,0,-1,-1,0,0,1,-1
1449106188915,0,0,3,-7,-8,4,0,-2,-3,-2,-6
1449106188915,2,0,3,-2,-1,-3,1,4,4,1,-2
1449106188916,3,0,3,-2,-2,-2,-3,-5,-6,-4,0
1449106188916,3,0,3,-2,-5,-2,-5,-7,-6,-7,-10
1449106188962,0,0,3,-3,-4,0,-1,2,-1,-3,-4
1449106188962,0,0,3,2,-2,-5,0,1,4,2,3
1449106189011,1,0,3,3,2,7,-1,-1,-4,-3,1
1449106189011,1,0,3,-2,-2,-6,-2,-4,0,1,1
1449106189012,3,0,3,-3,-5,4,0,-5,-6,2,-1
1449106189012,3,0,3,2,4,-5,-4,-2,-1,-1,6
1449106189013,0,0,3,3,10,-18,-11,-2,-1,3,2
1449106189013,0,0,3,1,-1,7,7,1,4,1,-3
1449106189014,1,0,3,-2,-1,1,-2,-1,0,1,-3
1449106189014,1,0,3,-3,-6,5,4,-1,-1,-2,-3
1449106189060,2,0,3,-7,-14,0,4,3,1,0,-9
1449106189060,2,0,3,3,7,7,3,-4,-5,-1,5
1449106189061,0,0,3,1,1,4,-2,2,1,0,3
1449106189061,0,0,3,-2,-7,-8,-2,-3,-3,-4,-6
1449106189109,1,0,3,0,0,2,1,2,1,1,-1
1449106189109,1,0,3,1,0,-10,-7,1,-1,-1,1
1449106189110,2,0,3,0,1,-1,-3,-7,-6,0,1
1449106189110,3,0,3,1,1,-4,-2,-2,-1,-2,0
1449106189110,2,0,3,-5,-2,14,4,3,2,-2,-1
1449106189110,3,0,3,0,5,1,1,2,1,2,-3
1449106189111,0,0,3,-3,1,4,-2,-2,-2,-2,-4
1449106189111,0,0,3,3,2,3,0,-3,-2,-1,2
1449106189161,2,0,3,0,3,5,3,1,0,0,1
1449106189161,2,0,3,0,-4,-15,-6,-2,-2,-4,-4
1449106189164,3,0,3,-1,4,17,7,-1,0,3,-3
1449106189164,3,0,3,-1,-5,-10,-4,-4,-5,1,5
1449106189164,0,0,3,-3,-9,-8,-9,-1,0,-3,3
1449106189164,0,0,3,-8,-11,7,7,4,-1,1,-16
1449106189166,3,0,3,0,6,2,5,6,5,1,-6
1449106189166,3,0,3,-3,0,9,-5,1,-2,-2,-3
1449106189206,0,0,3,0,-3,-20,0,0,2,-3,2
1449106189206,0,0,3,-1,-3,7,1,-5,-2,-2,3
1449106189207,1,0,3,-1,0,6,-1,-3,-1,0,-4
1449106189207,1,0,3,4,2,18,10,0,-1,-2,5
1449106189208,3,0,3,0,-6,-21,-2,4,0,-1,-2
1449106189208,3,0,3,-3,1,12,2,2,3,1,-1
1449106189209,0,0,3,-9,-15,-2,0,-6,-3,1,-10
1449106189209,0,0,3,1,8,16,3,-1,-3,-4,1
1449106189255,1,0,3,5,-1,5,4,1,-1,-1,8
1449106189255,1,0,3,-2,-7,-19,-6,3,5,2,-7
1449106189256,0,0,3,2,-3,-7,3,5,-1,3,3
1449106189256,0,0,3,4,10,26,0,-1,-4,-5,9
1449106189256,2,0,3,-2,12,26,8,1,0,0,-1
1449106189256,2,0,3,9,14,5,8,4,4,4,8
1449106189257,1,0,3,-4,2,-12,-13,0,-1,-1,7
1449106189257,1,0,3,0,6,45,24,7,5,-4,-12
1449106189304,2,0,3,-1,-10,-30,-10,-3,-1,2,-1
1449106189304,2,0,3,6,11,23,10,-1,1,1,2
1449106189305,3,0,3,-13,-10,2,-4,-8,-5,-5,-2
1449106189305,1,0,3,16,24,18,0,1,-1,4,16
1449106189305,3,0,3,2,0,-25,-2,1,1,-1,-5
1449106189305,1,0,3,-4,-10,-6,3,-3,-3,-4,-19
1449106189306,2,0,3,8,5,9,3,-2,-1,1,5
1449106189306,2,0,3,-5,4,0,-2,3,6,0,-12
1449106189353,3,0,3,-10,-16,-8,-2,-1,-3,0,3
1449106189353,3,0,3,2,-10,-5,11,2,-3,0,6
1449106189353,0,0,3,-3,1,8,3,0,2,-1,-9
1449106189353,0,0,3,-5,4,-9,-20,-8,-6,0,0
1449106189354,2,0,3,3,4,-26,-8,1,5,1,6
1449106189354,2,0,3,1,-5,-1,14,3,0,-1,-4
1449106189355,3,0,3,2,12,15,8,2,1,1,4
1449106189355,3,0,3,-5,7,17,-4,-7,-4,-2,-1
1449106189401,0,0,3,-2,-1,9,2,0,-2,-2,-5
1449106189401,0,0,3,2,0,-13,3,3,1,0,3
1449106189402,1,0,3,-4,-10,-5,4,-2,-2,-4,-10
1449106189402,1,0,3,0,6,-17,-23,-5,-3,-2,7
1449106189403,3,0,3,2,6,15,15,3,4,9,-12
1449106189403,3,0,3,-2,-16,17,9,2,4,0,15
1449106189404,0,0,3,3,0,-21,-26,-6,-2,-3,5
1449106189404,0,0,3,0,-14,-3,0,1,0,-1,-1
1449106189450,1,0,3,-1,1,-9,-1,-2,-2,-2,-8
1449106189450,1,0,3,-4,8,14,-5,-3,-6,0,-5
1449106189451,2,0,3,-1,0,12,0,0,-1,1,-2
1449106189451,2,0,3,-2,-6,-5,7,-3,-2,1,0
1449106189452,0,0,3,0,9,-1,6,-2,-3,-6,-17
1449106189452,1,0,3,-4,3,12,2,0,0,0,-11
1449106189452,1,0,3,8,3,-6,-5,-1,0,-2,10
1449106189452,0,0,3,0,-5,1,0,3,0,4,13
1449106189499,2,0,3,-23,-17,0,10,0,-5,-8,-11
1449106189499,3,0,3,-19,-21,-12,-1,-12,-6,-4,-5
1449106189499,2,0,3,4,1,-23,-16,-2,1,0,2
1449106189499,3,0,3,-2,4,9,-7,1,0,4,4
1449106189500,1,0,3,29,3,-23,-9,2,5,9,17
1449106189500,1,0,3,-47,-24,-4,-8,-10,-11,-16,-19
1449106189501,2,0,3,7,13,11,20,-8,-2,2,-3
1449106189501,2,0,3,10,31,22,33,28,17,30,27
1449106189548,0,0,3,-10,-1,18,9,-2,-6,-12,-16
1449106189548,3,0,3,10,0,-8,0,8,6,0,22
1449106189548,3,0,3,-14,-27,-39,-19,-15,-15,-11,-18
1449106189548,0,0,3,29,-55,-17,-23,-9,2,11,23
1449106189549,1,0,3,74,69,64,-9,6,20,46,43
1449106189549,1,0,3,-43,-14,-83,-6,1,-9,-24,-14
1449106189550,2,0,3,-5,117,113,22,1,5,13,-3
1449106189550,2,0,3,-54,-26,-70,-23,-10,-13,-15,-13
1449106189597,0,0,3,-84,-48,-70,5,21,-14,-69,-49
1449106189597,3,0,3,70,55,69,17,-9,-8,-21,4
1449106189597,3,0,3,-9,-60,-45,6,5,4,0,-4
1449106189597,0,0,3,5,11,-7,-12,-6,7,11,-3
1449106189598,2,0,3,17,23,-28,-100,-23,-5,23,32
1449106189598,2,0,3,-29,-76,20,4,-19,-6,-4,-18
1449106189599,3,0,3,66,-12,-35,-30,37,13,-4,15
1449106189599,3,0,3,-75,0,6,51,16,-5,-59,-39
1449106189645,1,0,3,5,82,32,-62,-22,8,21,29
1449106189645,0,0,3,-42,-18,-24,69,-20,-7,-18,-8
1449106189645,1,0,3,4,6,29,-76,6,-7,-20,-21
1449106189645,0,0,3,-80,-3,33,18,-4,-11,-15,-12
1449106189646,3,0,3,4,13,18,-37,-30,6,49,25
1449106189646,3,0,3,-48,-63,-28,40,25,-10,-42,-23
1449106189647,0,0,3,12,-2,30,-80,-30,-5,-8,-1
1449106189647,0,0,3,13,-37,-16,-52,-23,-13,-47,-18
1449106189695,1,0,3,-64,-36,-20,-33,-23,-4,-2,-24
1449106189695,1,0,3,-13,-1,-15,36,29,5,22,6
1449106189696,0,0,3,-35,-26,-25,-52,4,-16,-43,-84
1449106189696,2,0,3,3,35,10,25,-1,0,2,7
1449106189696,2,0,3,101,31,-13,-63,-12,-4,10,-1
1449106189696,0,0,3,9,-22,29,87,0,11,13,37
1449106189743,1,0,3,27,46,4,25,-15,-8,16,23
1449106189743,1,0,3,3,30,-2,-31,-9,7,8,6
1449106189744,2,0,3,19,10,7,5,-3,15,55,39
1449106189744,3,0,3,-4,19,-3,-11,3,-7,-39,-31
1449106189744,3,0,3,22,6,8,3,-4,11,15,28
1449106189744,2,0,3,38,3,-9,42,18,-9,-33,2
1449106189745,1,0,3,53,53,16,13,8,21,50,32
1449106189745,1,0,3,-75,-44,10,47,62,-18,-87,-112
1449106189791,2,0,3,-126,-111,-14,32,10,-12,-29,-44
1449106189791,2,0,3,-79,-1,-3,-11,-7,-16,-38,-38
1449106189792,3,0,3,127,119,1,-23,-9,15,83,88
1449106189792,3,0,3,-30,-72,-13,-56,-24,-21,-68,-39
1449106189840,2,0,3,72,16,-8,86,8,-9,-32,-8
1449106189840,2,0,3,-57,-53,-7,-91,-20,4,20,33
1449106189841,0,0,3,31,8,-10,-21,1,7,46,30
1449106189841,3,0,3,52,42,-1,-49,4,19,35,22
1449106189841,3,0,3,-29,-15,0,-6,-3,-5,-20,-9
1449106189841,0,0,3,-30,-3,-13,15,-13,-23,-36,-40
1449106189842,1,0,3,-9,-12,26,58,-2,-2,-14,-10
1449106189842,1,0,3,-89,-65,-26,-32,-19,-13,-41,-35
1449106189889,0,0,3,98,64,-5,-16,-9,-1,10,13
1449106189889,3,0,3,23,12,3,0,-15,-6,6,3
1449106189889,3,0,3,-59,-51,-5,-58,-10,-4,0,-27
1449106189889,0,0,3,-71,-14,22,44,17,4,-11,-6
1449106189890,1,0,3,-88,-47,3,-36,-17,9,21,4
1449106189890,1,0,3,35,-27,-32,52,20,-13,-49,-4
1449106189891,3,0,3,-74,-100,-23,-15,-28,-32,-65,-35
1449106189891,3,0,3,-23,-53,-12,27,1,-4,1,-10
1449106189937,0,0,3,90,88,23,-25,-7,11,41,28
1449106189937,0,0,3,-21,17,7,12,9,3,-9,-6
1449106189939,0,0,3,-80,-126,-14,61,26,-17,-58,-32
1449106189939,1,0,3,17,23,6,63,47,9,2,-2
1449106189939,0,0,3,-18,32,17,-68,-15,13,34,35
1449106189939,1,0,3,35,-30,-2,-9,-15,-6,1,-8
1449106189940,1,0,3,-21,-5,-1,-18,-7,-1,10,4
1449106189940,1,0,3,15,9,-6,4,5,4,22,4
1449106189986,2,0,3,-24,14,-12,-55,-33,-5,17,1
1449106189986,2,0,3,43,35,-2,5,0,3,-1,13
1449106189987,3,0,3,-76,-20,-6,-26,-16,-5,-16,-28
1449106189987,3,0,3,37,18,10,35,22,9,0,21
1449106189988,1,0,3,-15,-19,-5,-23,-12,0,-5,-4
1449106189988,1,0,3,64,67,15,49,9,2,20,17
1449106189989,2,0,3,-6,1,16,13,5,5,0,2
1449106189989,2,0,3,-2,-11,-16,39,26,-1,-4,2
1449106190035,3,0,3,-4,19,-12,-7,-14,-13,-28,-18
1449106190035,3,0,3,-15,-2,-13,-27,-7,4,24,10
1449106190036,0,0,3,26,-1,4,-15,-17,-9,-30,-21
1449106190036,0,0,3,-18,-38,5,25,2,-8,3,15
1449106190037,2,0,3,-48,-70,-12,-16,-12,-18,-51,-40
1449106190037,3,0,3,-50,-50,-10,2,-7,-4,-20,-16
1449106190037,2,0,3,16,25,4,29,17,14,9,3
1449106190037,3,0,3,15,41,10,-4,-8,3,22,19
1449106190084,0,0,3,-33,-9,-5,-12,9,1,-23,-19
1449106190084,0,0,3,37,29,13,4,2,4,27,18
1449106190085,3,0,3,-28,-26,-10,-18,9,-3,-15,-7
1449106190085,3,0,3,11,7,-8,1,-1,-1,8,0
1449106190085,1,0,3,2,2,9,12,1,-9,-27,-9
1449106190085,1,0,3,-14,5,15,77,14,7,31,0
1449106190086,0,0,3,24,35,5,15,2,3,16,7
1449106190086,0,0,3,22,19,5,12,-4,1,18,20
1449106190133,1,0,3,-65,-89,-9,-37,-20,-3,29,12
1449106190133,2,0,3,23,0,-1,-9,-2,0,9,13
1449106190133,0,0,3,83,59,21,85,51,13,-2,8
1449106190133,2,0,3,-8,-4,-15,10,11,-6,-70,-41
1449106190133,0,0,3,13,14,-20,-96,-36,-8,19,22
1449106190133,1,0,3,15,15,2,-19,-5,-10,-12,-12
1449106190135,1,0,3,9,16,6,-12,-2,0,2,0
1449106190135,1,0,3,-71,-79,-16,-27,-13,-10,-23,-33
1449106190181,2,0,3,-18,4,5,-11,-17,-9,-12,-14
1449106190181,2,0,3,3,17,-4,-19,3,6,8,1
1449106190182,3,0,3,82,61,4,-12,5,13,40,43
1449106190182,1,0,3,26,19,5,18,4,5,19,12
1449106190182,3,0,3,-25,-29,-8,-13,-10,-15,-33,-26
1449106190182,1,0,3,-75,-29,-11,-65,-24,-12,-33,-32
1449106190184,2,0,3,-1,-21,10,96,35,8,9,2
1449106190184,2,0,3,-12,-15,-6,-23,-13,-3,15,12
1449106190230,0,0,3,-1,-9,0,-12,0,3,-3,3
1449106190230,0,0,3,-10,-6,-2,21,-11,-9,-7,-4
1449106190230,3,0,3,55,18,-1,-14,-5,-5,-2,3
1449106190230,3,0,3,4,0,-8,-15,-1,10,0,-12
1449106190231,2,0,3,21,1,-1,-13,-15,-2,-3,-8
1449106190231,2,0,3,-45,-4,-7,-26,2,-1,-7,-13
1449106190232,3,0,3,-11,-50,-14,-2,-7,-4,3,0
1449106190232,3,0,3,10,33,-3,15,1,-4,-22,-2
1449106190278,0,0,3,-3,11,0,-7,-1,5,9,8
1449106190278,0,0,3,-25,-20,9,7,12,2,8,-9
1449106190279,1,0,3,4,10,-6,-6,0,-7,-17,-16
1449106190279,1,0,3,-6,3,2,-2,0,-1,16,9
1449106190280,2,0,3,42,8,2,-2,5,9,19,20
1449106190280,2,0,3,-8,-12,-7,-5,-4,-7,-19,-7
1449106190281,3,0,3,-24,-18,0,8,2,-2,-14,-5
1449106190281,3,0,3,37,6,0,12,2,6,26,11
1449106190327,0,0,3,-25,19,-2,-18,-9,1,21,11
1449106190327,0,0,3,22,-3,-5,8,-1,-4,-5,-6
1449106190328,1,0,3,26,5,-3,-15,-4,-5,-7,-5
1449106190328,1,0,3,-26,1,4,-22,-5,-1,-5,-4
1449106190328,3,0,3,17,16,19,27,-3,-5,-11,1
1449106190328,3,0,3,-11,6,-4,-9,7,8,4,0
1449106190330,0,0,3,-22,-11,0,-22,-7,0,9,-12
1449106190330,0,0,3,21,15,-3,15,6,1,-7,13
1449106190376,1,0,3,7,3,-6,-32,-5,-1,7,0
1449106190376,1,0,3,-25,-6,0,39,6,0,-23,-13
1449106190377,0,0,3,-21,-32,-21,-33,-17,-17,-31,-12
1449106190377,2,0,3,27,29,2,4,0,-4,-11,5
1449106190377,0,0,3,-14,-4,11,26,4,-5,-11,-8
1449106190377,2,0,3,20,-7,-1,-26,-11,-6,0,-6
1449106190379,1,0,3,26,16,-4,-9,4,5,3,5
1449106190379,1,0,3,-21,-6,-2,-23,-9,-1,28,16
1449106190425,3,0,3,9,-3,5,8,3,-1,-9,-3
1449106190425,2,0,3,8,1,7,27,6,2,-16,-5
1449106190425,3,0,3,-5,1,-11,-42,-13,-1,7,6
1449106190425,2,0,3,-28,7,4,-31,4,8,10,-3
1449106190426,1,0,3,-8,7,1,36,7,-8,-49,-24
1449106190426,1,0,3,-19,-51,-13,-5,-3,-8,-12,-10
1449106190427,2,0,3,18,-3,-8,-11,-13,-9,-10,-6
1449106190427,2,0,3,2,8,-3,-20,-5,3,7,4
1449106190474,3,0,3,8,7,8,12,3,6,10,2
1449106190474,0,0,3,-6,-13,7,35,-2,-11,-36,-7
1449106190474,0,0,3,-26,-9,-12,-52,3,7,15,-7
1449106190474,3,0,3,-18,-11,-5,-16,-12,-6,4,0
1449106190475,2,0,3,-7,8,7,9,1,4,32,1
1449106190475,2,0,3,38,6,-6,-19,-13,-3,-4,6
1449106190476,3,0,3,-1,14,16,32,19,9,11,-1
1449106190476,3,0,3,-48,-34,-4,-19,0,-6,-9,-9
1449106190522,0,0,3,-26,-11,3,4,-5,-4,-5,-3
1449106190522,0,0,3,27,19,4,6,2,1,-7,6
1449106190523,3,0,3,11,-5,-26,-19,1,-3,-3,2
1449106190523,1,0,3,31,13,0,-9,0,2,2,11
1449106190523,3,0,3,9,7,-1,9,6,1,6,1
1449106190523,1,0,3,29,10,-6,4,-2,-2,8,2
1449106190525,0,0,3,5,-7,-6,6,-3,-6,-5,0
1449106190525,0,0,3,-5,-26,-11,-28,-9,0,-10,-13
1449106190571,1,0,3,29,35,18,4,-7,-7,20,21
1449106190571,1,0,3,-35,-41,-7,9,5,8,-8,-22
1449106190572,0,0,3,-16,-10,1,-10,-8,-3,-1,0
1449106190572,2,0,3,-24,0,-12,-11,3,6,14,2
1449106190572,0,0,3,5,9,-3,8,4,6,12,3
1449106190572,2,0,3,6,-16,0,11,2,-4,-12,-3
1449106190574,1,0,3,20,8,6,-2,5,6,10,24
1449106190574,1,0,3,-23,-11,0,33,14,3,-11,-17
1449106190620,2,0,3,-7,-6,-2,-5,-6,1,-1,-3
1449106190620,2,0,3,3,4,-2,0,-1,-4,3,0
1449106190620,3,0,3,-19,-9,-16,-22,-15,-9,-8,-4
1449106190620,3,0,3,12,7,8,-4,0,5,10,7
1449106190621,0,0,3,-11,-8,-7,8,15,1,-4,-6
1449106190621,0,0,3,-5,-14,8,-1,-1,-2,-1,-1
1449106190622,1,0,3,17,6,8,7,3,5,2,2
1449106190622,1,0,3,-20,2,-2,-7,-11,8,22,1
1449106190669,3,0,3,-25,-6,-9,-24,-14,-6,-10,-19
1449106190669,2,0,3,6,-14,9,29,4,-7,-24,-1
1449106190669,3,0,3,42,5,6,8,9,0,3,14
1449106190669,2,0,3,10,13,-7,-10,-10,-3,8,6
1449106190670,1,0,3,1,-5,3,-3,0,0,1,-1
1449106190670,1,0,3,-90,-69,-19,14,9,-13,-52,-56
1449106190671,2,0,3,14,16,5,-17,-7,-4,-1,-2
1449106190671,2,0,3,1,0,-6,-3,-1,4,10,9
1449106190717,3,0,3,-1,-1,-1,-4,-12,-7,2,3
1449106190717,3,0,3,22,15,5,-3,-2,3,15,10
1449106190718,0,0,3,-8,-19,-3,8,-3,-6,-6,-4
1449106190718,2,0,3,14,12,5,13,6,-3,-9,-8
1449106190718,0,0,3,-12,11,2,-5,2,3,3,-3
1449106190718,2,0,3,-28,-11,-6,-20,-6,-8,-13,-15
1449106190720,3,0,3,-1,-33,-3,-10,3,3,8,9
1449106190720,3,0,3,-4,3,1,10,-8,-6,-7,-9
1449106190766,0,0,3,12,0,-6,-6,6,5,14,6
1449106190766,0,0,3,-6,-16,-13,-19,-3,-1,-8,-1
1449106190767,1,0,3,-17,15,11,32,11,-3,-17,-19
1449106190767,3,0,3,4,8,-9,-7,-12,-1,4,12
1449106190767,3,0,3,15,-12,-16,-30,-2,-3,4,4
1449106190767,1,0,3,32,13,2,-7,-6,1,11,19
1449106190768,0,0,3,-32,-4,4,-10,-7,-4,-6,-17
1449106190768,0,0,3,6,16,7,41,-6,-1,-10,2
1449106190815,1,0,3,-7,-3,4,25,11,1,-3,-6
1449106190815,2,0,3,16,-4,1,-14,2,6,11,11
1449106190815,2,0,3,-3,-7,-1,8,2,4,7,2
1449106190815,1,0,3,-16,-26,-6,1,-5,-7,-7,-7
1449106190816,0,0,3,8,-17,-6,-4,-10,-11,-23,-18
1449106190816,0,0,3,0,13,11,26,17,6,3,2
1449106190817,1,0,3,3,13,5,4,-5,-3,0,14
1449106190817,1,0,3,5,0,-5,-5,0,2,15,-6
1449106190863,2,0,3,-32,-18,-15,-28,-11,-7,-8,5
1449106190863,2,0,3,-14,-15,-6,3,-2,-2,-9,-26
1449106190864,3,0,3,8,14,-2,-23,-9,-2,4,6
1449106190864,3,0,3,5,4,-7,-11,1,5,-4,-2
1449106190865,1,0,3,-8,-3,10,29,4,4,2,-2
1449106190865,1,0,3,9,3,-7,-11,-1,2,0,7
1449106190866,2,0,3,20,34,7,-2,-2,6,11,12
1449106190866,2,0,3,23,10,1,-7,0,-3,-7,1
1449106190912,3,0,3,1,4,3,18,3,-3,-18,-14
1449106190912,3,0,3,-24,-31,-3,-24,-10,-5,4,-5
1449106190913,2,0,3,-1,2,5,23,9,-1,-14,-11
1449106190913,2,0,3,-25,-20,-10,-15,-9,0,7,7
1449106190913,0,0,3,-26,-10,-7,-4,12,3,-2,-6
1449106190913,0,0,3,8,-4,3,-7,-5,-2,11,4
1449106190915,3,0,3,37,24,3,20,9,4,-2,4
1449106190915,3,0,3,6,2,2,-12,-10,-6,-18,-8
1449106190961,0,0,3,-30,-12,-1,5,-2,-5,-13,-11
1449106190961,0,0,3,21,4,-1,-14,1,8,27,14
1449106190962,1,0,3,19,28,10,16,8,6,11,10
1449106190962,1,0,3,-25,-32,-7,10,-5,-15,-18,-11
1449106190962,2,0,3,-14,8,15,2,-13,2,5,4
1449106190962,2,0,3,6,-15,-25,-20,2,1,15,10
1449106190963,3,0,3,2,8,7,12,0,4,-7,-5
1449106190963,3,0,3,40,15,0,-4,-4,-3,-2,4
1449106191010,0,0,3,-7,-8,-9,-5,-4,-7,1,-9
1449106191010,1,0,3,-4,7,-1,-8,-4,1,-3,-1
1449106191010,1,0,3,15,9,-3,-1,-1,-1,8,10
1449106191010,0,0,3,-14,-9,-4,-9,-4,-5,-10,-10
1449106191011,3,0,3,-23,-1,-4,-14,-2,-1,16,5
1449106191011,3,0,3,11,14,2,11,-1,-7,-32,-25
1449106191012,0,0,3,-12,-9,-2,-5,-2,-3,-1,-3
1449106191012,0,0,3,7,4,-6,-10,-5,0,2,4
1449106191058,1,0,3,1,-5,-6,-1,2,4,11,2
1449106191058,1,0,3,23,5,-2,13,4,-4,-6,6
1449106191059,2,0,3,20,19,-4,-13,-4,-5,-17,-5
1449106191059,2,0,3,-30,-5,10,1,-7,2,2,-3
1449106191060,0,0,3,9,-21,-9,-8,-1,-2,8,6
1449106191060,0,0,3,12,10,2,13,2,2,-9,-1
1449106191061,1,0,3,-16,-3,4,-17,3,4,9,-2
1449106191061,1,0,3,-5,0,-3,18,14,8,29,17
1449106191107,2,0,3,-5,3,10,-2,-7,-11,-8,-10
1449106191107,2,0,3,12,2,-1,-2,-1,-1,-25,-11
1449106191108,1,0,3,-5,-3,0,-6,-12,-4,3,2
1449106191108,3,0,3,-3,-5,-2,-1,6,1,2,-10
1449106191108,3,0,3,-12,-16,-4,-4,-3,1,2,9
1449106191108,1,0,3,16,1,7,9,4,6,4,9
1449106191110,2,0,3,-5,-2,-15,-23,-2,-3,8,1
1449106191110,2,0,3,9,6,2,11,-3,0,-6,-10
1449106191210,3,0,3,-23,-24,7,38,5,-7,-20,-10
1449106191210,3,0,3,20,26,3,-8,-4,-1,-3,9
1449106191211,0,0,3,10,-5,4,-25,-10,1,-1,-4
1449106191211,3,0,3,-9,-4,-1,2,2,0,-5,-8
1449106191211,3,0,3,10,14,10,6,-14,-2,-5,3
1449106191211,0,0,3,-25,-18,1,45,6,-2,13,15
1449106191211,2,0,3,-6,-28,-8,19,6,-2,-1,6
1449106191211,2,0,3,22,19,0,-28,1,6,-2,3
1449106191255,0,0,4,-30,0,6,-13,-2,2,28,10
1449106191255,0,0,4,26,-2,-6,-7,4,1,-20,7
1449106191256,1,0,4,-27,-6,0,0,-4,3,26,12
1449106191256,3,0,4,2,-10,-7,-31,-13,0,15,1
1449106191256,3,0,4,-31,-23,-7,-24,-10,-4,-2,-5
1449106191256,1,0,4,18,3,4,10,1,-2,-15,-1
1449106191258,0,0,4,-41,-24,-2,-9,-6,0,8,2
1449106191258,0,0,4,22,-1,-6,-5,2,-1,-2,-6
1449106191302,1,0,4,-14,-19,-9,12,-3,0,-15,-15
1449106191302,1,0,4,2,5,1,-2,4,-4,-8,-4
1449106191303,2,0,4,-3,-1,-4,-2,6,5,18,6
1449106191303,2,0,4,10,7,3,0,0,-6,-13,1
1449106191304,0,0,4,-36,-2,26,32,18,7,3,3
1449106191304,0,0,4,33,18,12,53,13,2,18,10
1449106191305,1,0,4,-54,-54,-5,-13,-5,-7,-32,-36
1449106191305,1,0,4,4,18,2,14,6,-4,-19,-2
1449106191351,2,0,4,30,-12,-19,-25,-2,4,4,-4
1449106191351,2,0,4,3,19,5,-20,-18,-6,7,5
1449106191352,3,0,4,2,-11,7,27,5,5,15,4
1449106191352,3,0,4,-24,-12,-2,-1,9,-1,6,11
1449106191353,1,0,4,5,-11,-9,-5,-10,-7,0,7
1449106191353,1,0,4,-16,-16,-7,-15,-1,-1,-5,-9
1449106191354,2,0,4,-7,-1,-2,11,5,6,22,9
1449106191354,2,0,4,-1,1,-6,-6,-3,1,-4,-5
1449106191400,3,0,4,12,21,13,28,18,9,11,18
1449106191400,0,0,4,10,14,-6,-44,-8,2,14,15
1449106191400,0,0,4,-13,-37,-23,-20,-26,-26,-31,-18
1449106191400,3,0,4,23,58,6,-17,-6,2,10,2
1449106191401,2,0,4,1,1,-1,-16,-8,-7,-15,-3
1449106191401,2,0,4,7,2,-3,-16,-11,3,13,2
1449106191402,3,0,4,6,-19,-12,-17,-5,0,8,5
1449106191402,3,0,4,20,31,7,-12,3,4,22,18
1449106191448,0,0,4,-2,-9,-1,-3,1,-3,-2,6
1449106191448,0,0,4,-4,16,8,13,3,-5,-18,-7
1449106191449,1,0,4,-16,-19,-2,0,-6,-6,-4,-4
1449106191449,1,0,4,-17,-14,-6,2,3,2,2,-9
1449106191450,3,0,4,-15,7,2,-15,-14,-7,-2,-9
1449106191450,3,0,4,23,16,-1,3,4,9,1,3
1449106191451,0,0,4,-6,-10,20,25,5,-1,-22,-9
1449106191451,0,0,4,-27,-24,-22,-4,7,-1,12,7
1449106191497,1,0,4,46,-10,-9,37,11,1,-6,0
1449106191497,1,0,4,-28,4,12,-5,-6,1,0,-3
1449106191498,2,0,4,1,25,8,12,11,4,17,16
1449106191498,2,0,4,9,-17,-8,-10,-7,3,-9,-24
1449106191499,0,0,4,5,-3,1,-10,-9,-5,-4,0
1449106191499,0,0,4,-8,6,-2,2,3,-2,1,3
1449106191500,1,0,4,-10,-13,4,-10,-11,1,7,1
1449106191500,1,0,4,0,-7,-14,-6,-1,-7,-5,-4
1449106191546,2,0,4,8,1,-1,2,3,9,22,9
1449106191546,2,0,4,-21,-2,-6,2,1,-5,-10,-5
1449106191547,3,0,4,2,-5,37,9,5,5,2,2
1449106191547,3,0,4,1,4,-1,-8,0,-2,-20,-15
1449106191548,1,0,4,10,8,-7,1,7,0,5,4
1449106191548,1,0,4,1,7,-2,-2,4,1,-1,5
1449106191549,2,0,4,-4,-18,4,-2,-9,-4,-8,-4
1449106191549,2,0,4,23,27,2,-16,-1,-1,1,1
1449106191595,3,0,4,6,-25,-24,-13,-3,-6,-4,2
1449106191595,3,0,4,-36,3,4,59,2,-6,3,-6
1449106191596,0,0,4,12,11,3,-2,5,5,-2,1
1449106191596,0,0,4,-12,-16,-18,2,-1,-2,-2,1
1449106191596,2,0,4,-5,-22,-6,-3,5,1,-2,-4
1449106191596,2,0,4,-8,3,-1,6,0,1,-4,-3
1449106191597,3,0,4,-7,-8,1,6,0,-6,-1,0
1449106191597,3,0,4,7,2,-1,-19,-7,-4,2,2
1449106191643,0,0,4,1,12,-1,6,0,7,21,20
1449106191643,0,0,4,-7,-9,-1,-10,-5,-6,-18,-10
1449106191644,1,0,4,-6,-6,6,-11,-4,-1,-11,-11
1449106191644,1,0,4,14,0,-5,9,8,17,14,11
1449106191645,3,0,4,5,11,0,-7,-4,-11,5,-7
1449106191645,3,0,4,1,-14,-9,-5,-3,-4,-2,2
1449106191646,0,0,4,-35,-23,-17,-15,-9,-7,-23,-91
1449106191646,0,0,4,34,20,8,21,14,19,19,58
1449106191692,1,0,4,-5,3,-26,18,-4,-25,-8,25
1449106191692,1,0,4,-15,6,-1,-13,-1,1,-14,-10
1449106191693,2,0,4,19,-18,-16,-33,-1,32,39,30
1449106191693,2,0,4,9,41,48,27,9,-15,-7,19
1449106191694,3,0,4,-10,8,-3,-6,13,36,4,-20
1449106191694,3,0,4,-15,-63,-80,-41,-19,-25,-12,-5
1449106191695,0,0,4,-10,-49,-51,-10,-5,3,5,11
1449106191695,0,0,4,1,13,82,16,-1,-9,-3,-4
1449106191741,1,0,4,3,10,0,-27,-13,-19,-13,-5
1449106191741,1,0,4,25,23,42,28,8,3,11,33
1449106191742,2,0,4,-32,-11,23,6,1,-7,-14,-45
1449106191742,2,0,4,12,8,-55,3,5,11,13,-12
1449106191743,0,0,4,-13,-22,-74,-22,-6,-1,-2,-27
1449106191743,0,0,4,14,32,95,-3,-14,3,1,32
1449106191744,1,0,4,-13,16,65,12,-3,-5,-27,-50
1449106191744,1,0,4,-12,-8,-22,-1,4,8,35,40
1449106191790,2,0,4,7,-15,-90,-22,-6,-13,-23,-24
1449106191790,2,0,4,-12,20,87,17,4,-4,-2,21
1449106191791,3,0,4,14,-17,-26,-10,0,11,17,-2
1449106191791,1,0,4,7,-1,22,8,4,-1,4,23
1449106191791,1,0,4,-2,16,-4,6,9,13,-2,-26
1449106191791,3,0,4,-14,11,5,2,0,2,-3,-10
1449106191792,2,0,4,-7,-7,1,6,8,5,7,-10
1449106191792,2,0,4,28,21,42,31,1,1,-4,26
1449106191839,0,0,4,-4,1,-56,-37,-5,0,2,-9
1449106191839,0,0,4,11,-8,12,12,-1,-1,-10,27
1449106191839,3,0,4,5,-8,-21,-12,1,-7,-15,-24
1449106191839,3,0,4,-4,-1,-12,7,3,-4,3,-2
1449106191840,2,0,4,-6,12,-52,-4,1,-2,3,1
1449106191840,2,0,4,5,-11,-47,29,12,1,-5,-15
1449106191841,3,0,4,8,16,42,25,4,-2,3,6
1449106191841,3,0,4,-3,6,58,-24,-17,-5,-11,-5
1449106191936,0,0,4,6,36,80,7,-4,-7,1,47
1449106191936,0,0,4,-8,-6,-71,-35,0,3,-2,-43
1449106191937,3,0,4,-15,-39,-39,-25,-7,-6,-1,-1
1449106191937,1,0,4,-20,-3,55,17,5,-1,-5,-12
1449106191937,3,0,4,17,-7,-18,4,-4,-9,-4,15
1449106191937,1,0,4,-11,-48,-80,-23,-4,2,-4,-13
1449106191938,0,0,4,-4,-4,2,-2,-1,-16,-32,-9
1449106191938,0,0,4,-4,-5,8,10,-3,8,-6,7
1449106191985,1,0,4,-15,30,53,19,5,3,10,-17
1449106191985,2,0,4,6,10,34,19,-1,5,7,3
1449106191985,1,0,4,13,-21,-51,-11,-1,0,6,26
1449106191985,2,0,4,-7,-12,2,1,1,-1,3,-4
1449106191986,0,0,4,9,4,-17,-28,0,3,7,14
1449106191986,0,0,4,-12,-2,17,-1,-5,-5,-2,-17
1449106191987,1,0,4,7,4,21,2,-3,4,9,-6
1449106191987,1,0,4,5,-2,-18,-11,-9,-3,2,5
1449106192033,2,0,4,-3,1,-2,-5,0,-8,-19,1
1449106192033,2,0,4,1,-2,0,3,2,2,10,4
1449106192034,3,0,4,-6,0,17,3,-7,-7,-12,-14
1449106192034,3,0,4,10,-1,-36,-5,4,11,13,-1
1449106192035,1,0,4,2,5,21,11,0,-1,-6,-7
1449106192035,1,0,4,-2,-1,-35,-24,-12,-9,-7,11
1449106192036,2,0,4,4,6,23,17,9,7,9,-5
1449106192036,2,0,4,-2,8,-21,-11,0,-3,1,-5
1449106192082,3,0,4,-4,-13,17,14,1,1,2,-2
1449106192082,3,0,4,-2,-23,-42,-30,-8,-3,-7,-1
1449106192083,0,0,4,-10,-4,-13,-2,-4,-2,1,-2
1449106192083,0,0,4,-6,-11,43,9,-4,1,-6,-16
1449106192084,2,0,4,1,-16,-14,-4,-3,-4,-1,2
1449106192084,2,0,4,3,6,8,5,0,0,2,-7
1449106192085,3,0,4,0,10,2,-3,-8,-2,-3,-4
1449106192085,3,0,4,4,1,31,11,0,1,11,13
1449106192131,0,0,4,5,14,2,-1,2,-8,-7,-6
1449106192131,0,0,4,-12,-4,-28,-5,1,3,0,-7
1449106192132,1,0,4,9,2,14,2,2,3,3,7
1449106192132,1,0,4,-3,2,-9,3,3,-1,-3,-5
1449106192133,3,0,4,-12,11,16,5,-3,-3,-6,-11
1449106192133,0,0,4,-2,-1,12,7,4,4,0,-5
1449106192133,0,0,4,-2,-10,2,-5,1,2,2,4
1449106192133,3,0,4,4,-4,-7,-5,-1,-3,1,3
1449106192180,2,0,4,-4,-18,23,2,0,-3,-4,-4
1449106192180,2,0,4,-2,-5,-34,-5,3,2,3,1
1449106192180,1,0,4,1,-6,-17,-6,-7,-4,-5,-9
1449106192180,1,0,4,5,21,17,8,-1,1,0,8
1449106192181,0,0,4,-1,-9,-2,1,3,1,4,-1
1449106192181,0,0,4,9,15,0,-7,-7,-1,0,9
1449106192182,1,0,4,0,1,-9,0,-3,-1,0,10
1449106192182,1,0,4,-3,-3,-16,-7,-10,-9,-10,-10
1449106192229,2,0,4,-7,-26,-32,1,6,10,7,-4
1449106192229,2,0,4,6,-5,11,4,-4,-8,-2,9
1449106192230,1,0,4,-4,-10,-10,-5,0,0,-3,-8
1449106192230,3,0,4,0,2,0,-9,0,-3,-10,-2
1449106192230,1,0,4,5,0,10,4,2,1,-1,-1
1449106192230,3,0,4,-10,12,16,1,1,-4,-6,-14
1449106192231,2,0,4,4,10,-22,-10,-8,-3,0,-6
1449106192231,2,0,4,-8,-5,12,3,4,-1,-2,-5
1449106192280,3,0,4,-2,-4,-17,-13,-3,2,5,7
1449106192280,3,0,4,5,-5,12,3,3,2,-1,4
1449106192281,0,0,4,-1,7,25,5,-2,-2,-2,-2
1449106192281,2,0,4,-6,16,32,1,-1,0,-6,-25
1449106192281,2,0,4,-1,-11,-23,-4,-4,-2,-1,-3
1449106192281,0,0,4,4,9,-25,-9,-4,-4,-6,-8
1449106192282,3,0,4,-1,-12,1,-2,-1,2,0,-4
1449106192282,3,0,4,5,12,0,1,-5,-1,2,5
1449106192328,0,0,4,7,4,-8,-1,3,4,7,18
1449106192328,0,0,4,-12,-2,27,1,-1,-8,-14,-26
1449106192330,1,0,4,1,-3,-2,-1,-1,-1,3,6
1449106192330,1,0,4,-2,-7,-13,-2,1,-1,-2,-9
1449106192331,3,0,4,1,4,15,4,1,1,2,0
1449106192331,0,0,4,-4,-9,-14,-6,-5,-1,-2,-7
1449106192331,0,0,4,3,10,4,4,10,5,5,8
1449106192331,3,0,4,-11,-13,-6,-8,-9,-5,-6,-2
1449106192375,1,0,4,-6,-10,-2,-3,-2,-1,-3,-6
1449106192375,1,0,4,5,14,14,6,0,-1,3,0
1449106192376,2,0,4,-2,-11,-1,-2,-4,-1,3,6
1449106192376,3,0,4,-11,5,13,-5,-5,0,-2,-12
1449106192376,3,0,4,6,-9,14,-2,0,-6,-15,8
1449106192376,2,0,4,4,6,-5,2,1,6,13,-3
1449106192377,0,0,4,-3,-8,-16,-5,-3,-4,-6,-4
1449106192377,0,0,4,7,-4,8,4,2,0,1,7
